time,f1,b1,f2,b2,f3,b3,f1p,f2p,f3p,f0,intensity
0.025599,467.3,66.4,1561.9,517.2,2503.5,107.6,560.9,1500.9,2551.1,174.2,74.3
0.027599,481.7,57.3,1576.9,377.1,2503.9,91.5,561.1,1500.7,2551.1,174.2,74.7
0.029599,493.8,46.6,1598.4,263.7,2513.4,81.1,561.4,1500.4,2551,174.2,75.2
0.031599,503.0,36.7,1618.5,182.6,2526.6,73.8,561.9,1500,2551,174.2,75.7
0.033599,509.3,29.0,1633.1,129.8,2539.2,69.5,562.4,1499.4,2550.8,174.2,76.2
0.035599,514.2,23.8,1641.0,94.8,2552.0,70.0,563.1,1498.8,2550.7,174.2,76.7
0.037599,519.1,21.1,1641.6,70.3,2568.0,77.5,563.9,1498,2550.5,174.2,77.2
0.039599,524.9,21.2,1637.2,54.4,2586.2,93.2,564.8,1497.1,2550.3,174.1,77.5
0.041599,531.2,23.2,1631.0,46.2,2597.0,113.1,565.9,1496.1,2550.1,174.1,77.8
0.043599,537.2,25.2,1623.4,43.4,2592.4,126.1,567,1495,2549.9,174,78
0.045599,541.7,25.5,1612.6,43.9,2577.8,124.8,568.3,1493.7,2549.6,173.9,78
0.047599,544.3,24.8,1595.5,47.4,2564.9,113.8,569.7,1492.4,2549.3,173.9,78
0.049599,546.4,24.8,1572.1,53.0,2561.0,104.5,571.2,1490.9,2549,173.8,77.9
0.051599,549.7,26.3,1546.5,56.6,2563.6,100.6,572.9,1489.3,2548.7,173.7,77.7
0.053599,554.1,28.8,1526.5,56.3,2566.7,100.0,574.6,1487.7,2548.3,173.6,77.4
0.055599,559.1,31.8,1511.6,54.8,2564.5,98.9,576.4,1485.9,2548,173.5,77
0.057599,564.4,34.8,1499.3,54.3,2555.9,96.3,578.4,1484,2547.6,173.3,76.6
0.059599,571.2,36.8,1490.1,55.6,2544.6,96.7,580.4,1482,2547.2,173.2,76.3
0.061599,579.6,38.1,1482.7,59.6,2534.5,105.7,582.6,1479.8,2546.8,173.1,76.1
0.063599,588.4,40.0,1472.3,66.9,2528.9,123.9,584.8,1477.6,2546.3,173,76
0.065599,597.4,43.8,1456.4,75.8,2530.5,142.2,587.2,1475.3,2545.9,172.8,76
0.067599,606.8,49.6,1438.5,82.7,2539.9,143.3,589.6,1472.9,2545.4,172.7,76.1
0.069599,616.6,56.1,1422.2,84.3,2548.6,125.3,592.2,1470.4,2545,172.6,76.2
0.071599,625.2,59.7,1405.3,79.8,2551.4,111.1,594.8,1467.8,2544.5,172.4,76.4
0.073599,631.2,59.0,1387.2,69.9,2551.9,109.7,597.5,1465.1,2544,172.3,76.5
0.075599,634.9,55.7,1374.0,57.1,2552.7,118.6,600.3,1462.3,2543.5,172.2,76.7
0.077599,638.2,52.7,1369.1,46.4,2553.3,137.6,603.1,1459.5,2543,172.1,76.9
0.079599,642.2,51.2,1368.5,40.8,2551.2,163.3,606.1,1456.5,2542.5,172,77.1
0.081599,647.2,49.6,1367.7,39.9,2547.1,180.4,609.1,1453.5,2542,171.8,77.4
0.083599,652.1,46.2,1364.5,42.7,2545.7,172.4,612.2,1450.4,2541.5,171.7,77.5
0.085599,656.2,41.8,1359.2,47.8,2546.9,146.4,615.3,1447.2,2541,171.6,77.7
0.087599,659.2,37.9,1354.5,52.0,2547.2,124.2,618.5,1444,2540.5,171.4,77.9
0.089599,661.8,35.2,1351.9,53.0,2545.0,109.9,621.8,1440.6,2540,171.3,78
0.091599,664.4,33.5,1351.2,51.6,2540.2,100.8,625.1,1437.2,2539.5,171.1,78.1
0.093599,666.5,32.5,1350.7,50.9,2533.9,95.2,628.4,1433.8,2539,170.9,78.1
0.095599,667.9,31.7,1349.6,52.8,2527.4,92.2,631.8,1430.2,2538.6,170.7,78.1
0.097599,668.2,31.3,1347.1,57.9,2522.1,88.9,635.3,1426.7,2538.1,170.4,78
0.099599,667.8,31.4,1341.5,64.5,2519.6,83.4,638.7,1423,2537.7,170,77.9
0.101599,667.6,31.6,1332.8,69.3,2520.8,79.1,642.3,1419.3,2537.2,169.6,77.8
0.103599,668.9,32.5,1325.4,70.8,2527.6,81.2,645.8,1415.6,2536.8,169.2,77.7
0.105599,672.1,35.0,1325.3,70.4,2540.3,90.7,649.4,1411.8,2536.4,168.6,77.6
0.107599,676.4,39.4,1332.3,68.6,2554.6,102.7,652.9,1408,2536,168,77.6
0.109599,679.7,42.9,1340.2,65.3,2562.0,118.6,656.6,1404.1,2535.7,167.2,77.7
0.111599,681.1,43.5,1345.3,62.4,2560.8,149.4,660.2,1400.2,2535.4,166.4,77.8
0.113599,681.7,42.4,1348.1,61.8,2554.7,205.0,663.8,1396.2,2535,165.4,77.9
0.115599,682.6,42.2,1349.4,64.8,2549.5,298.4,667.4,1392.2,2534.8,164.2,78
0.117599,683.7,43.9,1350.3,70.4,2555.1,435.3,671.1,1388.2,2534.5,163,78
0.119599,684.8,46.9,1351.3,74.4,2573.7,550.3,674.7,1384.2,2534.3,161.5,78
0.121599,685.3,48.5,1351.1,73.6,2566.4,566.4,678.3,1380.1,2534.1,159.9,78
0.123599,685.5,48.0,1350.1,69.2,2514.8,531.0,681.9,1376,2534,158.2,77.9
0.125599,686.0,47.1,1349.1,64.0,2460.8,478.0,685.5,1371.9,2533.8,156.3,77.9
0.127599,686.9,47.8,1348.2,59.7,2435.7,431.1,689.1,1367.8,2533.7,154.2,77.8
0.129599,688.3,51.3,1347.8,57.0,2447.0,402.0,692.7,1363.7,2533.7,151.9,77.8
0.131599,691.3,57.9,1347.3,55.3,2486.6,365.8,696.2,1359.6,2533.7,149.5,77.6
0.133599,696.5,66.1,1346.0,54.4,2526.6,301.9,699.7,1355.5,2533.7,147,77.5
0.135599,703.2,74.0,1343.1,54.3,2544.8,241.1,703.2,1351.3,2533.8,144.3,77.3
0.137599,709.8,81.2,1338.5,54.7,2547.8,202.3,706.6,1347.2,2533.9,141.6,77.1
0.139599,715.7,88.5,1332.9,55.7,2547.9,179.7,710,1343.1,2534.1,138.7,76.9
0.141599,721.0,96.6,1326.5,58.6,2548.4,171.0,713.4,1339,2534.3,135.8,76.6
0.143599,726.1,107.2,1318.9,64.9,2544.7,176.1,716.7,1334.9,2534.6,132.8,76.3
0.145599,731.3,121.5,1310.0,73.5,2530.1,186.3,719.9,1330.8,2534.9,0,76.1
0.147599,736.6,135.1,1303.0,78.2,2509.7,184.4,723.1,1326.7,2535.2,126.7,75.8
0.149599,741.8,142.3,1300.8,76.6,2499.6,168.8,726.3,1322.7,2535.6,123.7,75.6
0.151599,745.9,142.5,1302.1,72.0,2502.6,151.0,729.4,1318.6,2536.1,120.8,75.4
0.153599,748.0,140.6,1305.4,68.3,2512.9,138.5,732.4,1314.6,2536.6,117.9,75.2
0.155599,747.6,142.7,1310.6,68.4,2526.4,137.4,735.4,1310.7,2537.2,115.1,75
0.157599,745.7,148.2,1315.3,72.7,2540.0,147.3,738.3,1306.7,2537.8,112.4,74.8
0.159599,745.2,148.2,1314.5,77.6,2549.2,153.5,741.1,1302.8,2538.5,109.8,74.8
0.161599,748.0,140.8,1308.0,80.5,2556.1,148.2,743.9,1298.9,2539.2,107.4,74.7
0.163599,753.9,133.9,1300.1,83.3,2566.2,140.2,746.6,1295.1,2540,105.1,74.7
0.165599,764.1,134.8,1293.1,90.8,2583.0,135.5,749.2,1291.3,2540.8,102.9,74.6
0.167599,778.5,147.5,1289.5,106.7,2601.0,133.8,751.7,1287.6,2541.7,100.9,74.6
0.169599,790.0,164.0,1290.1,121.4,2607.7,132.9,754.2,1283.8,2542.7,99.1,74.5
0.171599,790.2,168.7,1290.9,117.2,2600.8,131.5,756.5,1280.2,2543.7,97.4,74.4
0.173599,782.8,159.9,1290.2,99.2,2588.5,129.0,758.8,1276.6,2544.8,95.9,74.3
0.175599,774.4,147.4,1289.9,81.5,2575.3,125.2,761,1273,2545.9,94.6,74.1
0.177599,767.6,142.3,1291.6,72.2,2557.7,121.8,763.2,1269.5,2547.1,93.3,73.9
0.179599,764.8,152.0,1294.6,76.4,2528.7,121.9,765.2,1266,2548.4,92.3,73.7
0.181599,768.6,161.2,1295.2,87.2,2501.1,121.0,767.2,1262.6,2549.7,91.3,73.7
0.183599,774.3,158.1,1294.2,89.8,2493.5,115.8,769,1259.3,2551,90.5,73.8
0.185599,778.6,152.0,1294.6,85.8,2499.4,109.1,770.8,1256,2552.5,89.8,73.9
0.187599,780.7,150.6,1294.7,81.8,2509.9,105.2,772.5,1252.8,2554,89.2,74
0.189599,779.3,159.4,1288.2,81.8,2520.5,112.2,774.1,1249.7,2555.5,88.6,74.2
0.191599,772.2,172.7,1267.6,83.4,2525.7,142.1,775.6,1246.6,2557.1,88.2,74.3
0.193599,764.5,164.7,1246.8,75.3,2521.7,187.7,777,1243.5,2558.8,87.8,74.6
0.195599,763.3,143.6,1241.6,63.6,2518.5,222.9,778.4,1240.6,2560.5,87.5,74.8
0.197599,765.0,128.0,1244.4,54.6,2525.1,238.4,779.6,1237.7,2562.2,87.2,74.9
0.199599,766.3,123.5,1248.2,49.6,2542.4,236.2,780.7,1234.9,2564.1,86.9,74.8
0.201599,766.2,137.3,1249.2,51.9,2561.8,212.0,781.8,1232.1,2566,86.7,74.7
0.203599,766.9,167.1,1243.1,66.2,2560.5,178.1,782.8,1229.4,2567.9,86.6,74.5
0.205599,772.8,184.8,1233.8,84.7,2550.9,152.7,783.7,1226.8,2569.9,86.4,74.3
0.207599,779.6,180.4,1231.7,91.3,2548.3,136.1,784.4,1224.3,2571.9,86.2,74.1
0.209599,783.1,171.2,1235.3,89.1,2551.3,124.6,785.1,1221.8,2574,86.1,73.9
0.211599,782.3,168.4,1240.2,86.2,2558.7,118.7,785.8,1219.4,2576.1,86,73.5
0.213599,775.9,182.2,1243.6,89.0,2572.8,126.2,786.3,1217.1,2578.3,85.9,73.1
0.215599,769.9,220.3,1242.5,102.1,2600.0,162.3,786.7,1214.9,2580.6,85.7,72.7
0.217599,777.7,249.4,1239.0,113.0,2634.6,210.3,787.1,1212.7,2582.8,85.6,72.3
0.219599,785.1,243.3,1236.5,108.6,2647.1,221.5,787.4,1210.6,2585.2,85.4,72.1
0.221599,789.9,233.8,1236.3,102.9,2642.6,193.1,787.6,1208.6,2587.5,85.3,72
0.223599,792.2,239.2,1238.0,106.5,2632.3,156.5,787.7,1206.7,2589.9,85.1,72.1
0.225599,784.8,253.3,1238.8,124.0,2617.4,135.9,787.8,1204.8,2592.4,84.9,72.2
0.227599,770.4,243.6,1233.9,138.2,2602.0,132.9,787.7,1203,2594.9,84.7,72.3
0.229599,759.4,213.2,1224.5,124.8,2592.7,135.5,787.6,1201.3,2597.4,84.5,72.5
0.231599,753.3,185.2,1217.2,101.7,2592.4,133.8,787.5,1199.6,2599.9,84.3,72.6
0.233599,749.1,167.1,1212.3,83.1,2600.7,125.1,787.2,1198.1,2602.5,84,72.5
0.235599,744.1,162.1,1207.8,72.5,2615.0,110.9,786.9,1196.5,2605.2,83.7,72.2
0.237599,737.0,174.5,1200.3,74.1,2632.7,95.3,786.5,1195.1,2607.8,83.4,71.8
0.239599,736.4,195.1,1185.7,94.2,2648.8,78.5,786.1,1193.8,2610.5,83.1,71.5
0.241599,746.3,199.7,1173.2,112.7,2655.1,62.8,785.6,1192.5,2613.2,82.7,71.2
0.243599,755.3,198.6,1172.5,114.0,2654.7,51.6,785.1,1191.3,2615.9,82.4,71.2
0.245599,762.9,212.0,1179.9,112.8,2651.5,46.7,784.5,1190.1,2618.7,82,71.2
0.247599,770.1,242.6,1191.3,118.7,2646.5,48.0,783.8,1189,2621.4,0,71.2
0.249599,775.0,258.4,1205.1,131.4,2638.8,55.9,783.1,1188,2624.2,0,71.2
0.251599,775.7,230.5,1219.0,145.6,2627.3,69.5,782.3,1187.1,2627,0,71.2
0.253599,775.7,194.8,1227.2,155.9,2613.1,85.1,781.5,1186.2,2629.8,0,71.1
0.255599,776.9,176.5,1227.8,159.5,2600.5,96.4,780.7,1185.4,2632.6,0,71
0.257599,779.2,178.1,1223.2,158.6,2597.3,102.6,779.8,1184.6,2635.5,0,70.7
0.259599,782.9,205.4,1213.7,162.0,2612.2,108.9,778.9,1183.9,2638.3,0,70.4
0.261599,785.9,256.5,1196.3,172.2,2642.1,114.0,778,1183.3,2641.1,0,70.1
0.263599,779.5,284.5,1174.8,170.8,2663.2,111.4,777,1182.7,2644,0,69.9
0.265599,767.1,274.1,1161.5,153.5,2666.6,100.7,776,1182.2,2646.8,0,69.9
0.267599,758.9,260.3,1159.7,135.3,2660.4,85.7,774.9,1181.7,2649.7,0,69.9
0.269599,756.6,257.9,1165.4,125.8,2651.7,73.8,773.9,1181.3,2652.5,0,70.1
0.271599,760.9,248.0,1172.0,129.3,2642.9,70.9,772.8,1181,2655.3,0,70.4
0.273599,768.3,213.2,1173.8,140.5,2633.5,78.1,771.7,1180.7,2658.2,0,70.7
0.275599,770.6,176.4,1170.5,142.8,2622.6,94.9,770.6,1180.4,2661,0,71
0.277599,766.2,147.1,1167.0,129.1,2611.4,122.8,769.5,1180.2,2663.8,0,71
0.279599,758.3,128.1,1167.8,112.1,2609.0,157.1,768.4,1180,2666.6,0,70.9
0.281599,747.3,122.6,1174.7,103.9,2628.3,187.4,767.3,1179.9,2669.3,0,70.6
0.283599,732.6,134.1,1186.4,112.1,2672.8,196.8,766.1,1179.9,2672.1,0,70.2
0.285599,725.4,153.1,1196.1,140.1,2715.1,173.8,765,1179.8,2674.8,0,69.8
0.287599,734.7,165.1,1199.6,176.5,2735.7,140.7,763.9,1179.8,2677.5,0,69.5
0.289599,749.2,170.2,1201.4,197.2,2744.2,118.3,762.8,1179.9,2680.2,0,69.2
0.291599,759.6,176.9,1201.8,191.7,2748.2,107.8,761.6,1179.9,2682.8,0,69.1
0.293599,761.8,190.8,1198.0,171.1,2748.2,105.7,760.5,1180.1,2685.4,0,69
0.295599,753.5,209.2,1191.4,153.4,2742.0,109.4,759.5,1180.2,2688,0,69
0.297599,739.1,222.2,1184.8,151.7,2728.5,116.7,758.4,1180.4,2690.6,0,69.2
0.299599,733.1,216.8,1178.8,169.4,2715.0,125.2,757.3,1180.6,2693.1,0,69.6
0.301599,739.4,192.7,1175.8,182.0,2712.8,131.9,756.3,1180.8,2695.6,0,70
0.303599,744.7,161.7,1175.8,167.3,2719.3,135.2,755.3,1181,2698,0,70.4
0.305599,745.4,133.6,1175.2,143.0,2723.7,136.3,754.3,1181.3,2700.4,0,70.6
0.307599,743.6,112.6,1173.6,124.0,2719.9,133.7,753.4,1181.6,2702.7,71.7,70.5
0.309599,739.1,103.8,1170.5,116.6,2707.2,126.1,752.4,1181.9,2705,72.2,70.3
0.311599,729.6,121.1,1163.4,130.8,2689.8,116.7,751.5,1182.2,2707.3,72.6,70
0.313599,720.9,183.3,1155.5,174.1,2677.5,113.3,750.7,1182.6,2709.5,73.2,69.8
0.315599,736.1,261.2,1163.7,224.6,2681.2,112.0,749.8,1182.9,2711.7,73.7,70
0.317599,764.2,278.0,1186.6,238.1,2691.3,106.7,749,1183.3,2713.8,74.3,70.3
0.319599,780.8,257.4,1203.3,219.3,2696.9,102.2,748.3,1183.6,2715.8,75,70.7
0.321599,786.3,232.2,1208.7,193.6,2697.3,100.6,747.6,1184,2717.9,75.6,71.1
0.323599,786.3,211.2,1207.4,171.9,2693.8,102.0,746.9,1184.4,2719.8,76.3,71.3
0.325599,783.5,199.7,1200.9,156.6,2688.1,110.5,746.2,1184.8,2721.7,76.9,71.3
0.327599,777.8,205.7,1188.8,148.2,2686.6,135.8,745.6,1185.2,2723.5,77.5,71.3
0.329599,770.3,218.7,1177.7,140.9,2702.6,178.4,745.1,1185.6,2725.3,78.1,71.3
0.331599,766.3,212.9,1175.7,130.8,2731.1,194.6,744.6,1186,2727,78.7,71.3
0.333599,765.1,196.5,1178.2,120.3,2743.8,164.1,744.1,1186.3,2728.7,79.2,71.4
0.335599,766.1,189.2,1180.7,116.1,2740.8,121.0,743.7,1186.7,2730.3,79.6,71.4
0.337599,772.9,208.9,1182.1,129.7,2734.2,90.8,743.3,1187.1,2731.8,80,71.5
0.339599,788.1,251.7,1180.9,165.1,2729.1,79.8,743,1187.5,2733.3,80.2,71.6
0.341599,797.1,265.4,1179.9,188.5,2726.1,78.7,742.7,1187.8,2734.7,80.4,71.7
0.343599,792.2,246.4,1181.2,181.8,2724.7,75.7,742.5,1188.2,2736,80.5,71.7
0.345599,783.3,222.6,1183.5,164.2,2723.4,67.4,742.3,1188.5,2737.3,80.5,71.6
0.347599,773.6,204.8,1185.5,148.1,2720.9,57.8,742.2,1188.8,2738.5,80.4,71.4
0.349599,760.9,194.4,1185.2,137.6,2718.4,54.9,742.1,1189.1,2739.7,80.2,71.1
0.351599,749.3,183.3,1177.1,128.8,2720.3,67.8,742,1189.4,2740.8,80,70.9
0.353599,747.4,163.7,1165.9,111.2,2733.1,100.9,742,1189.7,2741.8,79.6,70.9
0.355599,752.0,145.2,1163.0,91.9,2758.3,137.6,742.1,1190,2742.7,79.2,71
0.357599,758.8,140.8,1166.9,82.0,2776.5,141.1,742.2,1190.2,2743.6,78.8,71.1
0.359599,765.4,153.2,1173.6,82.6,2775.0,123.7,742.3,1190.4,2744.4,78.2,71.3
0.361599,767.0,170.2,1179.1,91.9,2760.8,114.3,742.5,1190.6,2745.2,77.7,71.4
0.363599,762.7,163.3,1180.6,102.4,2743.0,115.3,742.8,1190.8,2745.9,77.1,71.5
0.365599,758.9,141.4,1179.3,107.2,2728.4,114.1,743,1190.9,2746.5,76.4,71.5
0.367599,757.5,122.8,1178.5,105.4,2720.3,105.5,743.3,1191.1,2747,75.8,71.3
0.369599,758.0,113.2,1181.0,102.5,2717.4,89.4,743.7,1191.2,2747.5,75.2,70.9
0.371599,757.8,115.9,1186.1,103.5,2717.4,73.2,744.1,1191.2,2747.9,74.6,70.4
0.373599,750.8,139.6,1191.4,113.2,2718.6,68.2,744.5,1191.3,2748.3,74.1,69.8
0.375599,737.7,185.1,1196.9,137.5,2721.5,88.8,745,1191.3,2748.6,73.6,69.5
0.377599,743.7,202.2,1201.8,174.6,2728.2,156.9,745.5,1191.3,2748.8,73.2,69.5
0.379599,759.8,178.8,1200.4,192.6,2733.9,233.7,746.1,1191.3,2749,72.8,69.8
0.381599,768.2,152.3,1196.5,182.6,2730.8,247.5,746.7,1191.2,2749.1,72.6,70.1
0.383599,771.1,133.3,1195.1,165.3,2724.5,225.6,747.3,1191.1,2749.1,72.4,70.3
0.385599,770.9,120.1,1196.1,149.1,2719.9,194.1,747.9,1191,2749.1,72.3,70.2
0.387599,767.9,113.4,1198.5,136.4,2720.8,157.7,748.6,1190.9,2749,72.2,69.8
0.389599,759.6,120.7,1200.8,130.5,2730.0,119.6,749.3,1190.7,2748.8,72.3,69.3
0.391599,743.6,149.0,1200.5,133.2,2741.1,91.9,750,1190.5,2748.6,72.5,68.9
0.393599,736.2,177.4,1196.8,146.8,2746.6,78.9,750.7,1190.3,2748.4,72.7,68.8
0.395599,747.3,182.6,1189.0,164.3,2745.9,74.7,751.5,1190,2748.1,73,68.9
0.397599,759.0,174.8,1177.8,168.2,2743.2,72.2,752.3,1189.7,2747.7,73.4,69.2
0.399599,764.9,163.5,1168.5,158.3,2740.7,68.6,753.1,1189.4,2747.3,73.9,69.3
0.401599,767.2,152.9,1163.8,145.6,2739.3,65.1,753.9,1189,2746.8,74.4,69.3
0.403599,767.7,149.0,1163.0,140.8,2739.3,64.1,754.7,1188.6,2746.2,75,69
0.405599,766.2,162.0,1163.7,156.3,2741.5,66.4,755.6,1188.2,2745.7,75.6,68.5
0.407599,762.1,192.8,1158.4,196.3,2743.7,67.8,756.4,1187.8,2745,76.2,68
0.409599,759.5,212.3,1142.5,222.0,2743.2,61.8,757.2,1187.3,2744.3,76.8,67.8
0.411599,758.7,215.3,1128.5,213.4,2742.6,51.5,758.1,1186.8,2743.6,77.5,67.7
0.413599,757.1,221.6,1120.3,195.1,2744.5,42.1,758.9,1186.3,2742.9,78.1,67.8
0.415599,752.6,238.1,1117.1,180.8,2748.8,36.4,759.8,1185.7,2742,78.7,68
0.417599,748.6,241.6,1125.2,176.1,2754.2,36.0,760.6,1185.1,2741.2,79.3,68.2
0.419599,751.3,212.2,1146.7,177.6,2759.4,41.1,761.5,1184.5,2740.3,79.9,68.5
0.421599,757.8,179.6,1168.8,175.5,2763.5,51.6,762.3,1183.9,2739.4,80.4,68.6
0.423599,762.3,159.4,1182.1,167.4,2765.9,71.3,763.1,1183.2,2738.4,80.9,68.6
0.425599,761.8,149.1,1185.0,156.4,2764.3,105.5,764,1182.5,2737.4,81.3,68.3
0.427599,755.4,151.0,1181.1,150.1,2753.4,131.6,764.8,1181.8,2736.3,81.7,67.9
0.429599,745.8,184.3,1178.6,167.5,2742.1,112.7,765.5,1181,2735.3,82,67.4
0.431599,741.3,255.6,1181.1,223.3,2740.0,91.4,766.3,1180.3,2734.2,82.3,66.9
0.433599,751.0,282.0,1186.2,275.4,2741.1,83.0,767,1179.5,2733,82.5,66.7
0.435599,764.7,262.0,1191.3,302.5,2741.6,79.0,767.8,1178.7,2731.9,82.6,66.7
0.437599,774.9,237.5,1190.6,316.5,2741.3,79.5,768.5,1177.8,2730.7,82.7,66.9
0.439599,779.2,225.0,1178.7,324.3,2740.0,89.3,769.1,1177,2729.5,82.7,67.2
0.441599,776.4,226.4,1158.9,316.4,2737.8,112.1,769.8,1176.1,2728.2,82.6,67.4
0.443599,766.5,229.3,1145.8,281.8,2733.7,137.5,770.4,1175.2,2727,82.5,67.6
0.445599,753.9,219.6,1144.8,228.0,2726.7,147.5,770.9,1174.3,2725.7,82.4,67.8
0.447599,745.5,202.9,1148.6,175.7,2716.7,144.5,771.5,1173.4,2724.4,82.1,68
0.449599,743.2,195.2,1152.6,139.0,2705.5,142.5,772,1172.4,2723.1,81.8,68.3
0.451599,743.0,206.2,1155.0,120.8,2694.0,157.2,772.5,1171.5,2721.7,81.5,68.6
0.453599,739.2,217.2,1155.7,114.2,2681.3,203.3,772.9,1170.5,2720.4,81.1,69
0.455599,735.4,206.9,1155.9,110.3,2669.5,268.6,773.3,1169.5,2719.1,80.7,69.4
0.457599,735.1,191.3,1156.3,105.8,2666.9,306.1,773.6,1168.5,2717.7,80.2,69.6
0.459599,736.6,181.3,1157.4,101.3,2672.2,297.9,773.9,1167.5,2716.3,0,69.6
0.461599,738.3,180.0,1159.2,98.7,2677.7,272.2,774.2,1166.5,2714.9,0,69.2
0.463599,740.1,194.9,1162.3,103.4,2684.8,256.8,774.4,1165.5,2713.6,0,68.4
0.465599,743.7,245.6,1169.7,129.2,2705.6,261.2,774.6,1164.4,2712.2,0,67.4
0.467599,756.0,336.8,1186.1,195.9,2750.9,256.8,774.7,1163.4,2710.8,0,66.5
0.469599,779.9,369.6,1207.8,265.6,2781.7,202.8,774.8,1162.3,2709.4,0,65.9
0.471599,795.0,326.6,1208.1,255.4,2771.9,144.0,774.8,1161.3,2708,0,65.7
0.473599,797.5,280.0,1199.1,215.1,2749.4,98.3,774.8,1160.2,2706.6,0,65.8
0.475599,791.5,244.3,1189.1,178.5,2732.1,68.0,774.7,1159.2,2705.2,0,65.9
0.477599,779.6,215.9,1178.4,148.9,2723.1,50.8,774.6,1158.1,2703.8,0,65.7
0.479599,766.1,195.8,1170.3,129.6,2720.0,42.5,774.4,1157,2702.4,0,65.3
0.481599,751.1,194.8,1170.5,129.6,2720.9,41.5,774.2,1156,2701.1,0,64.8
0.483599,730.8,204.9,1186.0,150.3,2725.0,51.1,773.9,1154.9,2699.7,0,64.4
0.485599,719.5,195.3,1207.4,169.5,2733.0,76.5,773.6,1153.8,2698.3,0,64.4
0.487599,732.5,179.9,1207.4,177.7,2744.1,109.3,773.2,1152.8,2697,0,64.7
0.489599,750.9,165.6,1196.4,175.6,2748.4,118.1,772.7,1151.7,2695.6,0,65.2
0.491599,763.9,151.7,1189.0,164.9,2742.2,106.7,772.3,1150.7,2694.3,0,65.6
0.493599,773.4,139.7,1189.3,151.1,2731.1,95.6,771.7,1149.6,2693,0,65.7
0.495599,781.6,131.5,1198.5,136.8,2718.5,90.7,771.1,1148.6,2691.7,69.8,65.5
0.497599,786.8,132.5,1215.3,123.0,2706.9,92.4,770.5,1147.6,2690.4,69.7,65.1
0.499599,780.4,154.2,1231.3,113.7,2700.3,103.4,769.8,1146.6,2689.1,69.7,64.6
0.501599,757.5,194.9,1234.8,116.0,2703.4,129.5,769.1,1145.5,2687.9,69.8,64.3
0.503599,745.8,215.3,1214.5,136.3,2714.1,153.3,768.3,1144.5,2686.6,70,64.3
0.505599,752.1,211.3,1174.4,153.1,2713.0,135.1,767.5,1143.6,2685.4,70.3,64.5
0.507599,760.7,201.1,1144.6,152.5,2705.3,98.7,766.6,1142.6,2684.2,70.7,64.7
0.509599,772.1,193.6,1133.4,156.2,2699.5,67.1,765.7,1141.6,2683,0,64.8
0.511599,785.6,192.7,1134.2,178.4,2695.0,46.0,764.7,1140.7,2681.8,0,64.7
0.513599,796.7,194.0,1141.5,229.6,2691.0,33.4,763.7,1139.7,2680.7,0,64.4
0.515599,793.2,188.9,1152.8,312.0,2688.7,28.2,762.7,1138.8,2679.5,0,64.1
0.517599,769.5,175.8,1162.3,357.6,2688.1,29.7,761.6,1137.9,2678.4,0,63.9
0.519599,744.0,164.1,1164.1,281.7,2686.8,38.7,760.5,1137,2677.3,0,63.9
0.521599,735.9,158.7,1161.4,202.0,2681.5,59.6,759.3,1136.2,2676.2,0,64.1
0.523599,740.2,161.4,1156.0,165.3,2672.9,89.9,758.1,1135.3,2675.2,0,64.3
0.525599,747.9,168.6,1149.6,152.5,2670.8,111.2,756.9,1134.5,2674.1,0,64.3
0.527599,755.2,180.2,1143.6,152.5,2679.4,115.5,755.7,1133.7,2673.1,0,64.1
0.529599,760.4,201.4,1138.4,164.5,2692.2,115.8,754.4,1132.9,2672.1,0,63.6
0.531599,761.2,242.8,1137.7,196.0,2703.1,131.0,753.1,1132.1,2671.1,0,63.1
0.533599,749.7,287.1,1156.2,241.6,2705.1,179.7,751.7,1131.3,2670.2,0,62.6
0.535599,730.0,284.8,1188.3,263.3,2689.0,249.0,750.4,1130.6,2669.2,88.7,62.4
0.537599,731.7,269.9,1189.7,283.7,2669.3,283.3,749,1129.9,2668.3,91,62.5
0.539599,749.8,269.0,1156.6,323.8,2660.0,274.4,747.6,1129.2,2667.4,93.3,62.9
0.541599,767.7,269.9,1112.7,359.5,2653.3,243.6,746.2,1128.5,2666.6,95.8,63.3
0.543599,774.2,248.4,1100.9,368.7,2651.2,201.5,744.8,1127.9,2665.7,98.4,63.6
0.545599,766.3,203.4,1141.0,330.8,2653.8,157.4,743.4,1127.3,2664.9,101.1,63.7
0.547599,754.7,166.4,1191.5,254.2,2654.1,123.7,742,1126.7,2664.1,103.9,63.6
0.549599,744.8,156.6,1213.8,203.7,2650.4,115.3,740.5,1126.1,2663.3,106.8,63.5
0.551599,735.9,167.7,1214.5,196.4,2643.0,135.1,739.1,1125.5,2662.5,109.7,63.2
0.553599,729.7,193.1,1198.7,227.5,2630.8,187.9,737.7,1125,2661.7,112.7,63
0.555599,730.5,237.9,1161.4,284.2,2616.2,266.7,736.2,1124.5,2661,115.7,62.8
0.557599,733.0,313.3,1105.0,302.3,2609.3,324.6,734.8,1124,2660.3,118.7,62.7
