time,f1,b1,f2,b2,f3,b3,f1p,f2p,f3p,f0,intensity
0.025857,355.7,218.8,2075.4,113.9,2789.9,399.6,319.1,2055.8,2683.2,125.2,57.5
0.027857,345.5,206.8,2068.5,167.2,2722.4,383.7,317.5,2053.6,2690.3,125,58.7
0.029857,325.0,188.1,2049.1,255.5,2675.3,382.7,315,2050.2,2701.9,124.8,60.1
0.031857,303.9,156.8,2014.9,352.8,2652.3,401.1,311.7,2045.6,2717.5,124.6,61.6
0.033857,288.3,125.7,1991.6,377.7,2660.4,450.3,307.7,2040.3,2736.7,124.4,63
0.035857,282.2,105.3,2009.2,312.3,2701.3,511.3,303.2,2034.5,2758.9,124.2,64.3
0.037857,281.3,88.9,2033.4,239.2,2757.1,533.0,298.6,2028.6,2783.3,124,65.4
0.039857,281.1,77.1,2047.2,189.4,2809.6,504.2,293.9,2022.9,2809.2,123.7,66.3
0.041857,279.3,70.2,2049.1,154.3,2857.8,424.4,289.5,2017.8,2835.8,123.5,67.1
0.043857,276.1,67.7,2038.1,137.2,2891.3,324.9,285.5,2013.7,2862.3,123.3,67.6
0.045857,273.6,64.5,2019.9,135.4,2916.7,241.8,282.2,2010.7,2888,123,68
0.047857,274.0,60.3,2006.8,144.9,2939.0,194.2,279.6,2009.1,2912.4,122.7,68.2
0.049857,276.7,61.1,2003.6,165.3,2965.6,165.0,277.9,2009.1,2934.7,122.5,68.4
0.051857,279.7,72.0,2008.8,192.5,2992.0,142.5,277.1,2010.6,2954.5,122.2,68.5
0.053857,283.4,90.4,2015.9,219.3,3008.6,123.4,277.3,2013.6,2971.7,121.9,68.5
0.055857,288.1,102.3,2023.0,233.8,3008.1,112.4,278.4,2018,2985.8,121.7,68.5
0.057857,292.2,103.4,2031.8,239.8,2996.1,105.5,280.3,2023.6,2996.9,121.4,68.5
0.059857,294.7,100.5,2040.3,263.6,2981.3,97.3,282.9,2030.1,3005,121.1,68.5
0.061857,295.3,97.0,2042.6,323.8,2973.8,90.5,286,2037.1,3010.3,120.9,68.5
0.063857,295.9,91.5,2035.7,411.0,2971.3,87.1,289.4,2044.2,3013,120.6,68.5
0.065857,296.7,88.3,2027.5,454.8,2970.4,88.3,293,2051.2,3013.5,120.4,68.6
0.067857,297.7,94.0,2032.1,410.8,2971.8,98.9,296.5,2057.7,3012.1,120.1,68.6
0.069857,299.0,106.8,2045.3,338.5,2979.2,125.2,299.7,2063.3,3009.3,119.9,68.7
0.071857,300.9,116.0,2059.8,281.6,2994.9,161.0,302.5,2067.7,3005.3,119.7,68.7
0.073857,302.4,115.5,2070.7,241.9,3008.6,178.7,304.8,2070.8,3000.8,119.5,68.7
0.075857,302.6,113.3,2077.2,205.1,3013.8,175.0,306.4,2072.3,2995.9,119.3,68.7
0.077857,302.0,114.8,2077.2,172.3,3012.6,162.9,307.4,2072.3,2990.9,119.1,68.7
0.079857,301.7,113.5,2073.9,148.0,3011.3,155.6,307.6,2070.7,2986.3,118.9,68.7
0.081857,301.4,106.3,2071.1,136.5,3008.6,159.6,307.1,2067.7,2982,118.7,68.8
0.083857,300.1,99.5,2068.1,133.6,3001.1,177.8,306,2063.3,2978.2,118.5,68.8
0.085857,298.3,99.1,2062.9,136.1,2991.7,203.3,304.3,2058,2974.9,118.3,68.7
0.087857,297.5,101.7,2057.0,136.6,2985.9,215.8,302.3,2051.9,2972.2,118.1,68.7
0.089857,298.3,100.0,2053.8,131.9,2982.9,203.5,300,2045.3,2969.9,118,68.7
0.091857,298.7,95.0,2052.1,127.2,2977.1,180.3,297.6,2038.7,2967.9,117.8,68.7
0.093857,297.4,90.2,2048.1,129.4,2966.5,156.1,295.3,2032.2,2966.1,117.6,68.6
0.095857,295.4,85.3,2039.4,142.3,2956.3,141.4,293.1,2026.3,2964.3,117.5,68.6
0.097857,294.7,77.9,2027.4,161.8,2949.6,135.0,291.2,2021.1,2962.4,117.3,68.6
0.099857,294.8,71.7,2016.3,176.7,2944.9,132.8,289.6,2016.9,2960.2,117.2,68.6
0.101857,294.0,69.1,2005.7,184.4,2937.8,132.8,288.6,2013.8,2957.7,117,68.6
0.103857,292.2,68.5,2000.4,184.8,2930.5,134.2,287.9,2011.8,2954.8,116.9,68.5
0.105857,291.6,66.7,2004.0,178.7,2927.2,132.7,287.7,2011,2951.5,116.7,68.5
0.107857,292.1,64.8,2009.6,172.1,2928.6,128.2,287.9,2011.2,2947.7,116.5,68.5
0.109857,291.6,66.0,2008.0,172.8,2932.8,124.9,288.4,2012.4,2943.7,116.4,68.4
0.111857,289.2,69.3,1997.1,182.7,2938.7,123.8,289.1,2014.3,2939.3,116.2,68.3
0.113857,287.5,70.5,1986.5,194.1,2943.7,122.1,290,2016.8,2934.8,116,68.2
0.115857,288.4,68.2,1986.4,202.2,2944.5,121.3,290.8,2019.5,2930.3,115.8,68.1
0.117857,289.9,67.8,1996.7,212.3,2940.9,123.3,291.6,2022.4,2926,115.6,67.9
0.119857,289.4,73.2,2017.4,218.4,2935.8,126.4,292.1,2025,2922,115.5,67.8
0.121857,287.6,80.3,2045.7,202.7,2933.5,123.7,292.3,2027.2,2918.4,115.3,67.6
0.123857,287.9,82.3,2064.4,168.0,2932.8,112.3,292.1,2028.9,2915.3,115.1,67.5
0.125857,289.9,84.7,2067.5,138.6,2928.7,102.8,291.4,2029.9,2912.8,114.8,67.4
0.127857,290.8,95.2,2060.4,123.2,2920.1,106.7,290.4,2030.2,2911,114.6,67.2
0.129857,288.9,108.7,2052.6,121.6,2911.8,130.0,288.9,2029.8,2909.9,114.4,67.1
0.131857,286.3,112.8,2048.8,126.0,2909.8,170.0,287.1,2028.7,2909.3,114.2,67
0.133857,285.0,109.0,2045.7,134.2,2913.0,215.4,285.1,2027,2909.4,114,67
0.135857,282.7,109.0,2035.3,154.9,2911.3,276.4,282.8,2024.9,2909.8,113.8,66.9
0.137857,278.0,114.2,2011.2,196.9,2893.8,351.0,280.5,2022.5,2910.6,113.5,66.8
0.139857,273.9,114.1,1972.4,258.8,2866.0,417.0,278.3,2020.1,2911.6,113.3,66.6
0.141857,274.3,108.8,1946.2,313.3,2856.7,465.0,276.3,2017.7,2912.6,113.1,66.5
0.143857,277.3,111.4,1959.1,357.2,2873.2,542.7,274.6,2015.7,2913.6,112.9,66.3
0.145857,279.5,129.2,2008.5,370.7,2908.7,648.2,273.3,2014.1,2914.4,112.7,66.1
0.147857,277.5,151.3,2055.3,360.1,2958.1,745.0,272.5,2013.1,2914.9,112.5,65.9
0.149857,272.1,148.1,2068.1,366.4,2984.8,809.7,272.2,2012.8,2915,112.3,65.8
