time,f1,b1,f2,b2,f3,b3,f1p,f2p,f3p,f0,intensity
0.025020,365.2,109.4,1381.6,190.6,2027.3,211.9,406.5,1381.1,2065.5,144.4,72.5
0.027020,394.8,123.9,1379.7,180.4,2045.1,200.0,412.2,1379.4,2076.8,144.4,72.6
0.029020,419.9,124.7,1373.3,161.0,2060.5,221.8,421.4,1376.5,2095.1,144.4,72.7
0.031020,441.2,125.2,1368.6,143.3,2084.5,283.0,433.7,1372.7,2119.4,144.4,72.9
0.033020,464.4,128.5,1367.5,123.3,2135.6,372.0,448.7,1367.9,2148.5,144.5,73.2
0.035020,485.6,127.0,1365.7,104.0,2203.5,425.5,465.7,1362.2,2181.2,144.7,73.6
0.037020,504.5,117.9,1358.9,88.7,2270.1,442.4,484,1355.7,2216,145,74
0.039020,521.2,106.9,1348.4,78.7,2330.0,437.9,503.1,1348.7,2251.2,145.3,74.4
0.041020,535.4,98.2,1339.6,71.4,2369.9,377.0,522.2,1341.2,2285.4,145.8,74.7
0.043020,547.4,93.3,1333.8,65.5,2368.5,296.8,540.7,1333.3,2317.2,146.4,74.9
0.045020,557.3,95.7,1329.9,61.7,2357.4,232.5,558.1,1325.1,2345.5,147.1,75
0.047020,568.1,103.7,1323.9,60.1,2349.6,176.0,574,1316.9,2369.3,148,74.9
0.049020,579.9,111.5,1310.9,60.1,2349.5,130.9,588.1,1308.7,2388.1,149.1,74.7
0.051020,587.7,114.6,1294.0,58.0,2357.4,108.6,600.2,1300.6,2401.4,150.3,74.5
0.053020,594.3,111.6,1282.5,52.4,2369.2,105.2,610.3,1292.8,2409.4,151.8,74.4
0.055020,604.8,102.5,1277.3,47.4,2384.4,116.4,618.3,1285.2,2412.3,153.5,74.2
0.057020,615.9,89.8,1276.3,47.3,2398.1,136.5,624.6,1278,2410.7,155.4,74.1
0.059020,625.4,77.5,1276.6,54.8,2400.0,153.5,629.4,1271.1,2405.4,157.6,73.9
0.061020,633.1,71.4,1276.3,73.6,2384.0,144.9,633,1264.7,2397.3,160.1,73.7
0.063020,639.1,72.2,1271.2,99.5,2370.8,118.9,635.7,1258.6,2387.4,162.8,73.5
0.065020,643.3,77.1,1255.3,109.3,2367.2,93.3,637.9,1253,2376.7,165.8,73.2
0.067020,647.1,83.6,1240.4,85.3,2369.5,74.5,640,1247.9,2366.1,169.1,72.9
0.069020,653.0,91.6,1235.6,61.9,2373.4,64.6,642,1243.1,2356.5,172.7,72.7
0.071020,659.0,97.1,1234.3,48.7,2375.7,60.7,644.3,1238.6,2348.5,176.5,72.5
0.073020,659.8,94.4,1232.7,42.9,2374.1,60.1,646.9,1234.6,2342.6,0,72.4
0.075020,654.9,85.6,1229.1,41.7,2367.4,63.1,649.9,1230.8,2338.9,0,72.3
0.077020,648.6,74.8,1223.2,44.8,2355.4,71.1,653.3,1227.4,2337.5,0,72.2
0.079020,645.9,65.4,1217.3,49.4,2344.1,78.2,656.8,1224.3,2338.3,0,72.2
0.081020,647.0,59.0,1215.0,55.2,2338.4,81.6,660.3,1221.5,2340.8,0,72.2
0.083020,651.8,57.5,1219.4,65.5,2339.6,83.5,663.7,1219.1,2344.6,0,72.1
0.085020,658.9,59.0,1227.6,78.3,2331.2,1986.2,666.6,1216.9,2349.2,0,72.1
0.087020,666.4,60.4,1233.3,85.7,2346.4,70.7,668.9,1215.2,2354,0,71.9
0.089020,671.6,61.2,1230.4,81.4,2348.5,58.6,670.5,1213.7,2358.4,0,71.7
0.091020,675.4,65.3,1221.1,71.8,2351.1,51.7,671.1,1212.7,2362.1,0,71.4
0.093020,679.5,77.3,1210.1,62.8,2355.1,53.7,670.8,1212.2,2364.6,0,71.1
0.095020,681.1,90.8,1202.9,56.5,2358.9,61.5,669.6,1212,2365.8,0,70.8
0.097020,676.4,94.9,1199.9,50.8,2361.4,67.1,667.4,1212.4,2365.5,0,70.5
0.099020,667.8,91.9,1201.2,48.2,2361.5,68.2,664.6,1213.3,2363.9,0,70.2
0.101020,660.6,91.1,1206.8,50.8,2360.7,70.5,661.4,1214.7,2361.1,0,70
0.103020,656.1,88.4,1215.0,54.2,2361.2,75.3,657.9,1216.6,2357.6,0,69.8
0.105020,652.9,76.3,1221.1,50.2,2363.2,77.8,654.4,1219,2353.7,0,69.7
0.107020,648.9,61.3,1224.8,41.2,2363.0,79.2,651.4,1221.9,2349.9,266,69.5
0.109020,642.5,50.6,1228.4,32.6,2356.4,89.2,648.9,1225.3,2346.7,270.3,69.3
0.111020,636.0,47.2,1231.2,27.7,2343.4,110.8,647.2,1229,2344.4,274.4,69
0.113020,631.8,47.2,1232.4,25.1,2326.8,137.6,646.6,1233,2343.4,278.2,68.6
0.115020,632.5,47.8,1232.8,24.7,2316.4,163.5,647,1237.2,2343.8,281.8,68.1
0.117020,637.4,51.5,1235.2,27.3,2325.6,197.3,648.5,1241.6,2345.9,285.2,67.4
0.119020,649.3,69.1,1245.5,36.1,2362.5,209.0,651,1246,2349.4,288.3,66.7
0.121020,671.9,106.1,1261.6,45.8,2384.8,166.3,654.3,1250.3,2354.3,291.2,66.1
0.123020,693.4,136.1,1269.3,45.8,2388.4,128.5,658.3,1254.4,2360.2,293.8,65.7
0.125020,697.5,134.4,1269.1,38.3,2388.0,100.8,662.6,1258.2,2366.7,296.1,65.3
0.127020,686.9,110.5,1266.0,29.5,2387.5,79.4,666.9,1261.7,2373.4,298.3,64.9
0.129020,674.3,85.0,1262.8,22.8,2387.9,62.9,671,1264.6,2379.7,300.2,64.3
0.131020,663.9,65.3,1259.9,18.5,2389.3,50.5,674.5,1267,2385.2,301.9,63.4
0.133020,658.8,60.2,1259.0,18.3,2389.4,46.8,677.2,1268.8,2389.4,303.4,62.1
0.135020,659.1,77.0,1262.2,25.1,2379.0,61.6,678.9,1269.8,2392.1,304.8,60.5
0.137020,665.8,125.6,1270.5,42.5,2339.3,105.4,679.5,1270.2,2393,306,58.6
