time,f1,b1,f2,b2,f3,b3,f1p,f2p,f3p,f0,intensity
0.025785,389.0,229.3,1120.8,122.7,2435.0,223.3,442,1140,2408.1,140.2,72.5
0.027785,422.3,231.4,1143.5,114.0,2421.9,206.9,445.6,1146,2413.9,140.9,72.9
0.029785,449.1,223.0,1159.6,102.6,2424.9,193.4,451.5,1155.8,2423.1,141.5,73.6
0.031785,470.0,204.3,1174.0,92.4,2439.4,186.6,459.3,1169.3,2435.4,142.2,74.3
0.033785,488.0,181.9,1190.2,87.0,2458.2,191.2,469,1186.1,2450,142.9,75
0.035785,503.9,161.5,1208.4,85.1,2474.3,207.7,480,1205.8,2466.1,143.7,75.7
0.037785,514.9,146.3,1226.3,84.6,2483.5,241.7,492.1,1228,2482.8,144.5,76.1
0.039785,522.0,137.7,1248.3,86.7,2486.9,312.4,504.8,1252.3,2499.2,145.3,76.4
0.041785,527.7,136.5,1277.4,91.2,2487.3,411.5,517.6,1278,2514.4,146.1,76.6
0.043785,535.2,134.8,1311.0,92.7,2496.4,459.2,530.2,1304.8,2527.6,147,76.6
0.045785,544.0,128.7,1342.7,87.8,2517.4,396.0,542,1332.1,2538,147.9,76.5
0.047785,551.6,123.7,1375.5,77.9,2535.5,282.9,552.8,1359.3,2545,148.8,76.3
0.049785,555.4,124.1,1404.6,65.5,2543.8,199.8,562.1,1386.1,2548.2,149.8,76.1
0.051785,558.4,127.1,1424.2,55.6,2546.1,156.0,569.7,1411.9,2547.3,150.7,76
0.053785,564.6,127.5,1435.9,52.1,2544.4,137.8,575.3,1436.6,2542.3,151.7,75.9
0.055785,573.9,122.8,1446.8,54.1,2538.1,130.9,578.7,1459.7,2533.4,152.7,75.8
0.057785,580.5,113.9,1459.5,58.3,2527.8,127.9,580,1481.2,2521,153.8,75.7
0.059785,582.0,105.2,1473.8,62.4,2515.3,126.9,579,1500.8,2505.6,154.8,75.5
0.061785,580.3,99.4,1491.6,69.1,2500.3,128.6,575.8,1518.5,2487.9,155.9,75.3
0.063785,575.9,94.3,1513.3,80.9,2481.3,135.2,570.5,1534.4,2468.6,157,75
0.065785,567.0,87.0,1537.9,97.4,2456.6,145.9,563.4,1548.6,2448.7,158.1,74.7
0.067785,554.4,81.4,1563.3,114.3,2431.5,150.8,554.6,1561.4,2429,159.3,74.4
0.069785,538.8,78.6,1589.1,125.3,2412.3,143.9,544.5,1572.8,2410.3,160.5,74.2
0.071785,523.6,76.1,1608.1,127.5,2403.3,129.1,533.2,1583.3,2393.3,161.6,73.9
0.073785,510.5,72.0,1618.6,130.3,2398.1,115.1,521.2,1593.1,2378.7,162.8,73.8
0.075785,500.3,68.3,1625.3,142.2,2389.8,108.3,508.7,1602.7,2367,164,73.7
0.077785,491.3,66.1,1633.5,168.3,2373.7,110.5,496.1,1612.4,2358.5,165.3,73.6
0.079785,482.2,64.8,1642.6,209.1,2349.8,121.6,483.5,1622.4,2353.3,166.5,73.6
0.081785,471.9,64.0,1650.1,264.2,2323.8,137.5,471.3,1633.2,2351.3,167.7,73.6
0.083785,461.6,64.5,1656.8,327.8,2309.5,152.1,459.7,1645.1,2352.5,169,73.5
0.085785,450.9,67.0,1661.0,400.5,2315.0,160.0,448.7,1658.2,2356.3,170.2,73.5
0.087785,440.7,72.0,1652.2,469.5,2335.8,154.0,438.7,1672.7,2362.3,171.4,73.3
0.089785,433.5,78.9,1636.1,512.7,2359.9,141.0,429.6,1688.7,2369.8,172.7,73
0.091785,430.0,86.7,1634.6,530.0,2384.1,131.2,421.5,1706.4,2378.3,173.9,72.7
0.093785,428.6,93.7,1659.0,545.7,2404.9,126.8,414.3,1725.6,2387.1,175.1,72.3
0.095785,425.0,98.2,1702.3,581.3,2419.3,123.4,408.2,1746.2,2395.4,176.3,71.9
0.097785,417.5,97.4,1757.7,633.0,2424.8,119.1,403,1768.1,2402.8,177.4,71.5
0.099785,407.7,89.9,1832.1,666.9,2421.8,114.0,398.5,1791,2408.7,178.6,71.3
0.101785,397.4,78.1,1903.8,618.7,2414.2,107.4,394.8,1814.7,2412.7,179.7,71.1
0.103785,387.1,67.5,1939.0,511.9,2407.7,96.6,391.7,1838.8,2414.6,180.7,71
0.105785,378.6,60.6,1937.7,429.9,2404.4,85.2,389.1,1862.9,2414.4,181.7,71
0.107785,372.4,55.5,1918.0,388.4,2403.9,78.5,386.9,1886.6,2412.1,182.7,71.1
0.109785,369.2,51.3,1897.0,384.0,2406.3,79.0,385,1909.7,2408,183.7,71.2
0.111785,368.3,47.9,1885.0,413.8,2409.7,86.2,383.3,1931.7,2402.5,184.6,71.4
0.113785,369.2,45.1,1884.8,474.2,2412.5,99.4,381.6,1952.2,2395.9,185.4,71.5
0.115785,371.2,42.0,1898.1,564.3,2412.5,120.1,380.1,1971,2388.8,186.2,71.7
0.117785,373.6,39.1,1929.6,674.7,2405.1,148.0,378.5,1987.8,2381.8,186.9,71.8
0.119785,375.4,37.2,1981.8,812.9,2385.6,177.0,376.9,2002.5,2375.5,187.6,71.8
0.121785,376.0,36.7,2035.2,976.5,2360.3,186.7,375.2,2014.8,2370.4,188.2,71.8
0.123785,375.7,36.8,2064.3,1142.7,2342.6,173.7,373.5,2024.7,2367,188.8,71.8
0.125785,375.3,36.2,2064.6,1237.7,2337.3,159.1,371.8,2032.3,2365.6,189.4,71.8
0.127785,375.7,34.6,2058.2,1227.9,2339.7,154.4,370,2037.5,2366.4,189.8,71.6
0.129785,376.8,33.3,2060.5,1139.7,2348.7,161.5,368.2,2040.6,2369.6,190.3,71.4
0.131785,377.8,34.1,2071.3,1038.6,2364.5,180.3,366.5,2041.8,2375.1,190.6,71.1
0.133785,378.2,37.7,2066.4,948.4,2388.3,200.5,364.8,2041.3,2382.8,191,70.7
0.135785,377.4,43.5,2034.4,874.7,2412.3,200.5,363.2,2039.3,2392.1,191.3,70.2
0.137785,374.9,51.2,1999.5,810.6,2425.0,180.7,361.7,2036.4,2402.8,191.5,69.6
0.139785,370.3,59.9,1986.8,749.9,2426.6,160.9,360.3,2032.7,2414.3,191.7,69
0.141785,363.6,69.3,1995.7,688.8,2427.9,151.9,359.1,2028.6,2425.9,191.8,68.4
0.143785,356.1,80.9,2016.6,638.0,2434.4,155.7,358.1,2024.5,2437.1,192,67.7
0.145785,349.2,99.0,2042.9,595.3,2446.9,168.6,357.2,2020.7,2447.2,192.1,67
0.147785,344.9,118.7,2052.2,545.9,2460.3,171.0,356.5,2017.4,2455.7,192.1,66.3
0.149785,343.8,125.3,2034.7,495.2,2465.0,156.4,356,2014.9,2462.1,192.1,65.7
0.151785,345.9,110.6,2011.9,446.6,2463.1,142.3,355.7,2013.4,2466.2,192.1,65.1
0.153785,350.0,81.9,1992.5,400.2,2458.8,138.5,355.6,2012.8,2467.5,192.1,64.6
