time,f1,b1,f2,b2,f3,b3,f1p,f2p,f3p,f0,intensity
0.025454,466.5,201.5,1080.4,268.8,2487.7,176.6,429.7,1006.6,2477.1,70.7,62.9
0.027454,446.8,193.8,1044.1,242.7,2493.5,153.4,427.4,1008.1,2476.8,71.5,63.6
0.029454,421.2,160.0,1018.1,199.0,2490.9,136.0,423.6,1010.3,2476.3,72.4,64.4
0.031454,404.6,127.4,1002.9,169.7,2483.9,128.6,418.4,1012.7,2475.3,73.4,65.3
0.033454,395.6,103.7,995.5,156.7,2475.1,127.9,412.1,1015,2473.8,74.5,66.1
0.035454,390.3,88.1,991.7,156.2,2468.0,134.1,404.8,1016.5,2471.6,75.7,66.8
0.037454,385.4,80.7,984.3,167.9,2464.1,154.9,396.8,1016.7,2468.5,77,67.5
0.039454,379.4,82.1,970.0,194.7,2461.6,203.5,388.3,1015,2464.5,78.4,68.1
0.041454,372.0,90.4,958.1,240.1,2452.6,288.6,379.6,1011,2459.6,80,68.7
0.043454,364.1,104.4,960.4,322.8,2422.1,414.0,371,1004.5,2453.9,81.6,69.2
0.045454,358.2,121.5,976.2,451.3,2378.0,541.3,362.7,995.2,2447.5,83.4,69.5
0.047454,355.7,137.7,999.2,617.0,2369.9,628.2,355,983.4,2440.8,85.2,69.9
0.049454,356.1,146.0,1024.2,758.0,2429.8,602.8,348,969.3,2434.1,87.1,70.1
0.051454,354.3,140.4,1016.8,757.9,2480.1,471.2,342,953.3,2428,89.1,70.3
0.053454,346.8,122.1,962.3,595.8,2490.5,362.4,337.1,936.2,2422.9,91.1,70.6
0.055454,338.3,101.2,917.7,418.9,2480.7,296.0,333.5,918.7,2419.3,93.2,70.9
0.057454,333.2,90.3,897.3,322.4,2459.8,271.9,331.1,901.6,2417.9,95.3,71.1
0.059454,330.6,88.8,886.6,275.5,2432.1,269.2,330.1,885.8,2419,97.3,71.4
0.061454,330.3,93.4,877.7,257.9,2409.1,271.3,330.2,872.1,2422.9,99.4,71.7
0.063454,332.5,101.3,868.5,260.0,2400.3,275.9,331.6,861.2,2430,101.4,71.9
0.065454,335.9,113.5,859.1,271.2,2401.8,291.2,334.1,853.7,2440.1,103.4,72
0.067454,339.8,131.6,850.6,282.2,2409.2,323.5,337.5,849.8,2453.2,105.3,72.2
0.069454,344.2,148.6,845.2,290.2,2432.4,361.6,341.7,849.7,2468.9,107.1,72.3
0.071454,348.0,151.1,845.5,294.8,2486.6,343.8,346.5,853.2,2486.8,108.8,72.4
0.073454,349.7,139.3,848.0,291.5,2542.7,243.1,351.7,860,2506.2,110.4,72.4
0.075454,350.1,120.5,846.7,286.3,2569.4,155.2,357.2,869.5,2526.2,111.9,72.5
0.077454,353.4,105.2,846.5,308.9,2578.5,115.3,362.8,880.8,2546.2,113.2,72.5
0.079454,359.9,95.6,858.4,372.5,2580.8,108.7,368.4,893.2,2565.1,114.4,72.5
0.081454,367.3,90.7,891.9,470.4,2582.5,124.1,373.8,905.7,2582.2,115.5,72.4
0.083454,374.5,91.7,934.4,567.3,2586.8,151.2,378.9,917.2,2596.7,116.4,72.3
0.085454,382.5,95.2,960.1,634.1,2591.1,177.2,383.7,927.1,2608,117.2,72.2
0.087454,389.7,94.9,960.8,662.1,2590.1,193.1,388.2,934.4,2615.6,117.9,72.1
0.089454,395.7,92.9,953.7,680.9,2586.5,202.9,392.3,938.8,2619.3,118.4,72
0.091454,402.2,95.5,952.6,717.7,2588.1,215.4,396.1,939.7,2619.2,118.8,71.8
0.093454,410.3,103.1,954.0,752.8,2598.0,222.8,399.7,937.1,2615.4,119.1,71.6
0.095454,415.9,106.2,944.3,722.2,2605.4,204.7,403.1,931.1,2608.4,119.4,71.4
0.097454,416.4,104.6,920.4,602.9,2603.0,170.9,406.5,922.1,2598.8,119.5,71.2
0.099454,412.5,107.5,894.6,446.3,2596.7,142.1,409.8,910.6,2587.4,119.5,71.1
0.101454,407.6,120.2,877.4,332.0,2591.8,122.9,413.3,897.4,2575.1,119.5,70.9
0.103454,406.6,136.1,868.3,278.7,2588.6,111.6,417,883.3,2562.8,119.4,70.7
0.105454,411.5,147.6,864.7,273.2,2586.8,108.9,420.9,869,2551.4,119.3,70.5
0.107454,420.5,166.1,861.4,307.7,2586.4,124.2,425.1,855.4,2541.6,119.1,70.2
0.109454,429.6,206.2,849.2,355.5,2584.9,168.8,429.7,843.3,2534.1,118.9,69.8
0.111454,437.2,267.6,826.5,377.7,2573.5,250.0,434.5,833.2,2529.4,118.6,69.5
0.113454,442.4,319.1,809.4,372.2,2538.9,340.4,439.6,825.6,2527.7,118.4,69.1
0.115454,447.5,324.7,809.3,378.4,2492.9,360.5,445,820.6,2529.1,118.1,68.7
0.117454,452.5,304.2,818.6,419.4,2475.1,308.5,450.4,818.3,2533.4,117.9,68.4
0.119454,457.0,289.0,824.5,484.6,2479.2,257.1,455.7,818.5,2540.2,117.6,68.3
0.121454,457.6,268.2,828.6,514.0,2481.6,249.0,460.9,820.7,2548.8,117.3,68.3
0.123454,457.9,242.6,833.7,525.6,2483.5,294.2,465.9,824.6,2558.6,117.1,68.4
0.125454,463.6,226.7,839.8,579.6,2499.1,419.3,470.3,829.3,2568.7,116.8,68.7
0.127454,471.1,216.4,850.6,676.7,2556.5,624.9,474.2,834.4,2578.4,116.6,68.9
0.129454,473.3,201.8,865.2,733.8,2645.9,702.4,477.4,839.1,2586.9,116.4,69.2
0.131454,473.0,190.5,864.4,711.7,2661.9,579.4,479.7,843,2593.5,116.1,69.3
0.133454,481.8,200.1,837.9,684.6,2647.8,423.3,481.1,845.4,2597.7,116,69.4
0.135454,506.9,237.2,786.1,696.5,2646.1,324.8,481.6,846.3,2599.1,115.8,69.5
