time,f1,b1,f2,b2,f3,b3,f1p,f2p,f3p,f0,intensity
0.025834,586.5,29.1,1506.7,33.8,2498.1,110.1,675.4,1377.6,2444.3,0,82.1
0.027834,593.8,26.8,1492.7,28.9,2495.0,115.4,675.7,1377.1,2443.7,0,82.2
0.029834,602.5,25.6,1478.3,27.7,2494.2,117.8,676.1,1376.2,2442.7,0,82.2
0.031834,613.8,25.3,1459.8,29.3,2493.5,120.0,676.8,1375,2441.4,0,82.1
0.033834,625.2,25.5,1440.1,32.3,2491.4,124.6,677.7,1373.4,2439.7,0,82
0.035834,636.3,26.5,1421.3,36.0,2489.8,135.3,678.8,1371.5,2437.6,0,81.8
0.037834,645.9,28.3,1404.4,39.3,2488.4,150.8,680,1369.2,2435.1,0,81.7
0.039834,651.4,29.9,1388.1,38.8,2480.2,156.0,681.5,1366.6,2432.3,0,81.5
0.041834,652.3,31.2,1374.5,35.2,2463.1,133.5,683.1,1363.8,2429.1,0,81.3
0.043834,653.3,34.2,1361.8,32.6,2448.5,102.3,684.9,1360.5,2425.5,0,81.1
0.045834,659.2,42.2,1348.5,33.3,2440.0,84.9,686.9,1357.1,2421.7,0,80.9
0.047834,671.0,56.5,1338.6,36.6,2435.7,84.1,689,1353.3,2417.4,0,80.7
0.049834,688.2,77.5,1332.9,41.7,2430.7,92.2,691.4,1349.2,2412.9,0,80.3
0.051834,708.0,102.1,1328.5,47.7,2419.6,100.4,693.9,1344.9,2408.1,0,79.9
0.053834,723.5,121.1,1321.4,53.5,2402.0,98.3,696.5,1340.4,2402.9,0,79.5
0.055834,737.1,136.5,1308.6,60.4,2380.7,87.4,699.3,1335.6,2397.5,0,79
0.057834,754.6,153.7,1289.2,69.0,2355.4,74.7,702.3,1330.6,2391.8,0,78.6
0.059834,770.9,167.4,1270.9,74.3,2331.3,64.8,705.4,1325.4,2385.8,0,78.2
0.061834,778.5,171.3,1257.9,76.3,2313.4,59.9,708.6,1320.1,2379.6,0,77.9
0.063834,772.8,160.3,1248.0,78.6,2303.2,64.4,712,1314.6,2373.1,0,77.7
0.065834,762.3,140.7,1238.9,78.9,2298.7,75.7,715.5,1309,2366.4,0,77.5
0.067834,757.3,127.7,1229.3,75.0,2294.8,80.8,719.1,1303.2,2359.6,0,77.5
0.069834,759.5,125.2,1217.7,66.7,2293.0,77.3,722.9,1297.3,2352.5,0,77.5
0.071834,764.8,127.2,1207.5,57.8,2295.3,78.1,726.7,1291.4,2345.3,0,77.6
0.073834,769.2,131.5,1203.8,51.0,2298.4,85.0,730.7,1285.4,2337.9,0,77.6
0.075834,770.3,139.8,1208.6,48.6,2299.7,97.1,734.7,1279.3,2330.4,0,77.6
0.077834,768.1,150.5,1220.1,50.1,2299.0,117.1,738.8,1273.3,2322.7,0,77.5
0.079834,764.9,154.9,1231.4,52.9,2297.5,136.6,742.9,1267.2,2315,0,77.4
0.081834,765.9,155.0,1239.9,56.0,2293.9,143.9,747.2,1261.1,2307.1,0,77.3
0.083834,773.2,155.1,1246.1,60.7,2287.5,144.3,751.4,1255.1,2299.2,0,77.2
0.085834,781.9,153.0,1249.2,65.8,2277.2,149.9,755.7,1249.1,2291.3,68.7,77.2
0.087834,785.0,146.2,1246.7,68.8,2263.7,156.7,760.1,1243.2,2283.3,68.6,77.2
0.089834,780.8,138.3,1237.9,69.4,2249.2,160.4,764.4,1237.3,2275.3,68.6,77.3
0.091834,775.6,135.7,1228.6,70.2,2233.4,165.4,768.8,1231.6,2267.4,68.6,77.3
0.093834,774.3,139.2,1223.1,71.1,2213.4,177.1,773.1,1225.9,2259.4,68.5,77.3
0.095834,776.9,146.5,1223.6,69.7,2190.8,196.4,777.5,1220.4,2251.5,68.5,77.3
0.097834,781.9,157.4,1230.2,69.2,2171.0,217.8,781.8,1215.1,2243.6,68.4,77.3
0.099834,786.8,170.4,1241.4,73.6,2154.8,234.7,786.1,1209.9,2235.9,68.4,77.3
0.101834,787.0,174.0,1251.3,80.8,2149.7,249.4,790.3,1204.8,2228.2,68.3,77.4
0.103834,784.1,165.4,1248.3,86.5,2158.1,268.4,794.5,1200,2220.6,68.3,77.6
0.105834,784.6,157.3,1227.8,87.3,2177.9,273.3,798.6,1195.3,2213.2,68.2,78
0.107834,786.7,153.1,1198.7,77.5,2206.4,253.3,802.6,1190.9,2205.9,68.1,78.4
0.109834,789.4,152.3,1178.9,65.0,2228.0,232.5,806.5,1186.6,2198.8,68,78.8
0.111834,797.3,160.4,1167.2,57.4,2242.2,219.6,810.4,1182.6,2191.8,68,79
0.113834,817.6,184.7,1161.2,57.8,2252.4,210.1,814.1,1178.8,2185,67.9,79.1
0.115834,857.8,227.0,1162.0,68.6,2259.9,191.0,817.6,1175.2,2178.5,67.8,79
0.117834,891.3,256.5,1169.4,80.1,2257.8,167.1,821.1,1171.8,2172.1,67.7,78.8
0.119834,871.2,254.1,1177.3,73.0,2244.8,166.4,824.4,1168.7,2166,67.6,78.6
0.121834,829.6,222.8,1179.7,61.1,2228.6,175.1,827.5,1165.8,2160.2,67.5,78.6
0.123834,816.4,203.6,1175.0,57.4,2222.7,176.9,830.5,1163.2,2154.6,67.4,78.6
0.125834,821.0,200.4,1167.4,56.3,2223.7,178.6,833.3,1160.8,2149.2,67.3,78.6
0.127834,838.0,211.4,1161.4,57.6,2227.4,184.8,835.9,1158.6,2144.2,67.2,78.6
0.129834,863.9,234.9,1160.9,62.5,2230.3,193.8,838.4,1156.6,2139.4,67.1,78.6
0.131834,883.3,257.5,1164.6,66.9,2223.9,200.3,840.6,1154.9,2135,67,78.5
0.133834,866.8,258.1,1167.7,64.0,2198.5,215.9,842.6,1153.5,2130.8,66.9,78.5
0.135834,837.3,241.5,1166.1,62.5,2172.6,232.7,844.4,1152.2,2127,66.8,78.7
0.137834,821.8,229.7,1159.7,63.4,2159.0,244.8,846,1151.2,2123.4,66.8,78.8
0.139834,818.6,227.0,1151.5,62.4,2154.0,256.3,847.4,1150.4,2120.2,66.7,79
0.141834,826.2,235.5,1145.5,63.8,2151.2,275.8,848.5,1149.7,2117.4,66.7,79.1
0.143834,845.9,254.0,1142.6,73.2,2142.2,309.8,849.4,1149.3,2114.8,66.6,79.1
0.145834,867.7,262.0,1145.1,89.4,2113.5,343.7,850.1,1149.1,2112.6,66.6,79
0.147834,865.4,242.1,1153.1,97.0,2072.0,347.6,850.5,1149,2110.8,66.6,78.8
0.149834,847.1,212.5,1163.8,98.8,2053.0,336.9,850.8,1149.1,2109.2,66.7,78.6
0.151834,831.8,188.0,1174.9,102.1,2060.9,327.6,850.7,1149.4,2108.1,66.8,78.5
0.153834,821.7,173.0,1180.8,101.0,2069.5,318.6,850.4,1149.8,2107.2,66.9,78.4
0.155834,815.9,170.1,1178.5,96.4,2068.1,318.8,849.9,1150.4,2106.7,67.1,78.3
0.157834,814.1,176.5,1172.8,95.8,2056.1,332.6,849.2,1151,2106.6,67.4,78.1
0.159834,816.5,188.0,1168.0,103.0,2029.5,347.0,848.2,1151.8,2106.8,67.7,77.9
0.161834,815.8,189.0,1167.9,108.6,2005.3,334.2,847,1152.7,2107.3,68.1,77.7
0.163834,807.4,175.5,1173.2,102.8,2007.8,313.2,845.6,1153.7,2108.1,68.5,77.6
0.165834,798.5,160.3,1181.1,91.0,2033.0,309.1,844,1154.7,2109.3,69.1,77.6
0.167834,796.0,153.6,1186.1,82.3,2053.9,314.8,842.1,1155.8,2110.7,69.7,77.8
0.169834,797.0,154.4,1187.9,77.8,2067.5,325.1,840.1,1157,2112.5,70.5,77.9
0.171834,799.3,161.3,1187.3,78.3,2080.0,343.0,837.8,1158.1,2114.6,71.4,78
0.173834,805.8,173.9,1184.3,85.4,2086.6,362.4,835.4,1159.4,2117,72.4,78
0.175834,818.4,192.2,1177.2,99.7,2084.5,376.3,832.8,1160.6,2119.6,73.5,77.9
0.177834,829.6,211.3,1166.4,115.3,2089.1,384.0,830,1161.8,2122.6,74.7,77.8
0.179834,824.1,216.4,1158.8,120.1,2109.4,389.0,827.1,1163,2125.7,76.1,77.7
0.181834,805.4,201.1,1157.6,115.7,2132.3,387.8,824,1164.3,2129.2,77.6,77.6
0.183834,787.5,175.8,1160.0,107.2,2143.9,376.6,820.8,1165.4,2132.9,79.2,77.6
0.185834,777.0,156.9,1160.2,96.1,2147.1,361.3,817.5,1166.6,2136.8,80.9,77.6
0.187834,770.4,146.9,1156.7,83.8,2150.1,350.1,814.1,1167.6,2140.9,82.7,77.8
0.189834,767.8,145.8,1151.6,73.7,2152.9,347.2,810.6,1168.7,2145.2,84.7,77.9
0.191834,771.5,149.8,1148.9,66.2,2160.2,348.1,807,1169.6,2149.7,86.7,78.1
0.193834,779.2,152.5,1151.0,61.2,2184.2,342.3,803.4,1170.5,2154.4,88.8,78.3
0.195834,788.1,157.6,1155.6,57.9,2225.0,317.6,799.7,1171.3,2159.3,91,78.6
0.197834,798.8,171.2,1159.5,56.7,2260.0,270.0,796,1172,2164.3,93.2,78.8
0.199834,807.8,185.3,1160.3,56.7,2270.2,227.3,792.2,1172.6,2169.4,95.4,79
0.201834,809.3,190.7,1159.0,55.9,2267.1,196.4,788.5,1173.2,2174.7,97.7,79.2
0.203834,803.7,191.0,1156.5,55.3,2258.4,177.5,784.8,1173.6,2180,99.9,79.3
0.205834,799.0,194.3,1154.0,57.2,2247.4,176.2,781.1,1173.9,2185.5,102.2,79.3
0.207834,799.2,198.6,1152.5,60.8,2237.8,186.3,777.5,1174.1,2191,104.4,79.2
0.209834,800.6,193.9,1153.0,62.9,2237.5,192.3,774,1174.2,2196.6,106.5,79.1
0.211834,798.2,179.4,1154.5,62.1,2247.4,187.6,770.5,1174.2,2202.2,108.5,79
0.213834,793.2,162.0,1155.2,60.3,2257.1,183.6,767.1,1174,2207.8,110.5,78.8
0.215834,788.2,145.4,1154.2,57.4,2258.5,185.4,763.8,1173.8,2213.5,112.3,78.7
0.217834,783.6,132.2,1153.1,53.2,2251.5,186.4,760.7,1173.4,2219.1,114.1,78.7
0.219834,779.5,124.4,1152.7,49.4,2240.1,188.2,757.7,1172.9,2224.8,115.7,78.6
0.221834,776.9,124.9,1152.6,47.8,2226.1,198.0,754.8,1172.3,2230.4,117.2,78.6
0.223834,776.1,129.9,1152.3,47.2,2216.3,207.5,752.1,1171.6,2235.9,118.6,78.6
0.225834,775.8,135.7,1152.8,46.7,2217.3,208.2,749.6,1170.8,2241.4,119.9,78.6
0.227834,776.4,145.1,1155.0,47.6,2225.7,209.5,747.2,1169.8,2246.9,121,78.7
0.229834,779.7,158.0,1157.6,50.7,2230.9,217.9,745.1,1168.8,2252.2,122.1,78.8
0.231834,784.2,166.4,1159.8,54.3,2230.7,222.1,743.1,1167.7,2257.4,123,79
0.233834,786.7,166.6,1162.8,57.7,2226.7,214.8,741.4,1166.5,2262.6,123.8,79.2
0.235834,786.7,166.0,1167.9,63.0,2220.9,203.6,739.9,1165.2,2267.6,124.4,79.4
0.237834,784.4,166.9,1172.4,68.7,2217.5,195.0,738.6,1163.8,2272.5,125,79.6
0.239834,779.3,163.4,1172.6,70.1,2219.7,183.0,737.6,1162.4,2277.2,125.5,79.7
0.241834,772.2,155.0,1167.6,64.7,2227.8,163.0,736.7,1160.8,2281.8,125.9,79.9
0.243834,766.8,149.0,1160.4,56.1,2237.2,144.9,736.1,1159.3,2286.2,126.3,80
0.245834,765.3,149.4,1154.1,48.6,2245.5,137.1,735.8,1157.6,2290.4,126.5,80
0.247834,765.8,152.1,1150.8,44.4,2253.3,138.9,735.6,1155.9,2294.5,126.7,80
0.249834,763.5,151.6,1151.1,44.1,2260.5,144.1,735.8,1154.2,2298.3,126.9,79.9
0.251834,758.2,152.1,1154.6,48.2,2266.7,153.0,736.1,1152.4,2302,126.9,79.7
0.253834,753.0,153.0,1159.6,55.9,2270.1,165.9,736.7,1150.6,2305.5,127,79.5
0.255834,749.4,148.8,1162.0,61.3,2270.3,173.2,737.5,1148.8,2308.7,127,79.3
0.257834,745.9,140.8,1161.2,61.8,2269.0,171.3,738.5,1146.9,2311.8,127,79
0.259834,742.5,135.8,1158.7,59.7,2268.0,168.1,739.8,1145,2314.6,126.9,78.7
0.261834,740.8,138.1,1155.8,58.3,2268.7,172.1,741.2,1143.2,2317.2,126.9,78.4
0.263834,741.3,142.9,1151.8,57.0,2272.8,180.6,742.8,1141.3,2319.6,126.8,78.1
0.265834,743.0,150.6,1145.9,55.3,2282.5,191.9,744.6,1139.5,2321.7,126.7,77.9
0.267834,746.6,169.0,1139.4,54.6,2297.0,210.1,746.6,1137.6,2323.6,126.5,77.8
0.269834,752.7,197.3,1133.9,54.5,2313.2,233.0,748.8,1135.8,2325.3,126.4,77.8
0.271834,758.0,217.1,1131.3,53.8,2324.3,245.4,751.1,1134,2326.7,126.3,77.9
0.273834,758.6,220.1,1132.4,55.0,2328.2,247.1,753.5,1132.2,2328,126.1,78
0.275834,755.3,212.8,1135.9,60.1,2328.6,248.5,756.1,1130.5,2328.9,126,78.2
0.277834,751.0,197.7,1138.1,64.1,2328.0,250.1,758.7,1128.7,2329.7,125.8,78.4
0.279834,747.3,180.3,1136.0,61.3,2329.3,244.8,761.5,1127.1,2330.2,125.6,78.5
0.281834,745.7,172.8,1131.8,55.1,2338.1,231.6,764.3,1125.5,2330.5,125.5,78.6
0.283834,746.7,180.8,1128.4,50.4,2354.6,218.2,767.1,1123.9,2330.6,125.3,78.6
0.285834,749.6,199.2,1126.0,47.5,2370.9,213.5,770,1122.4,2330.4,125.2,78.6
0.287834,749.2,206.9,1124.3,43.8,2377.5,220.3,772.9,1120.9,2330.1,125,78.6
0.289834,742.4,203.2,1123.0,39.7,2378.5,239.2,775.8,1119.5,2329.5,124.8,78.6
0.291834,732.2,201.1,1122.5,38.6,2382.0,274.5,778.7,1118.1,2328.7,124.7,78.6
0.293834,726.2,201.4,1122.8,40.6,2388.3,309.1,781.5,1116.8,2327.7,124.5,78.7
0.295834,725.9,202.2,1123.2,43.0,2390.2,327.9,784.3,1115.5,2326.5,124.3,78.9
0.297834,729.7,211.8,1124.5,46.6,2380.5,336.1,787,1114.4,2325.2,124.2,79.1
0.299834,735.8,229.2,1127.2,52.9,2366.4,339.1,789.6,1113.2,2323.6,124,79.4
0.301834,741.9,239.5,1129.1,58.8,2359.0,331.6,792.1,1112.1,2321.9,123.9,79.7
0.303834,746.7,242.5,1128.1,60.6,2358.6,312.8,794.4,1111.1,2320,123.7,79.9
0.305834,751.1,255.9,1125.0,61.1,2358.1,295.6,796.6,1110.2,2317.9,123.5,80.1
0.307834,758.8,291.8,1122.3,65.3,2352.2,288.4,798.6,1109.2,2315.7,123.4,80.2
0.309834,768.2,330.9,1120.9,72.0,2342.6,288.9,800.4,1108.4,2313.4,123.2,80.3
0.311834,770.6,338.5,1120.5,73.9,2332.0,285.6,802,1107.6,2310.9,123,80.2
0.313834,764.8,322.5,1120.4,71.0,2322.7,274.9,803.4,1106.8,2308.2,122.9,80.1
0.315834,758.3,308.3,1120.7,71.1,2315.5,266.1,804.5,1106.1,2305.5,122.7,80
0.317834,756.7,295.0,1121.5,78.0,2311.8,263.5,805.4,1105.4,2302.7,122.5,79.9
0.319834,758.7,275.3,1121.1,84.7,2311.1,258.4,806.1,1104.8,2299.7,122.3,79.7
0.321834,762.0,258.5,1117.8,86.8,2307.9,250.4,806.4,1104.2,2296.6,122.2,79.6
0.323834,770.5,259.9,1112.2,89.2,2296.9,253.5,806.5,1103.7,2293.5,122,79.5
0.325834,785.0,278.8,1107.2,95.3,2284.3,275.4,806.3,1103.1,2290.3,121.8,79.4
0.327834,799.6,297.7,1103.1,100.2,2282.8,306.3,805.8,1102.6,2287,121.6,79.3
0.329834,812.2,314.2,1099.3,102.6,2296.7,343.6,805,1102.2,2283.7,121.4,79.4
0.331834,827.9,338.1,1094.8,109.2,2310.6,399.3,803.9,1101.7,2280.3,121.2,79.4
0.333834,846.3,363.1,1089.3,119.3,2309.1,471.6,802.5,1101.3,2276.8,121.1,79.5
0.335834,852.7,371.1,1085.8,119.9,2299.0,518.8,800.7,1100.9,2273.4,120.9,79.5
0.337834,844.5,367.4,1084.9,109.8,2297.3,533.1,798.7,1100.5,2269.9,120.7,79.6
0.339834,832.7,363.7,1084.0,101.1,2291.4,544.0,796.3,1100.1,2266.4,120.5,79.6
0.341834,824.9,359.9,1082.6,101.2,2268.4,568.1,793.6,1099.8,2262.8,120.3,79.6
0.343834,818.6,348.1,1082.1,102.4,2247.1,590.9,790.6,1099.4,2259.3,120.1,79.6
0.345834,806.8,328.7,1082.7,94.8,2237.0,595.1,787.4,1099,2255.8,120,79.6
0.347834,792.1,309.4,1082.8,83.4,2222.5,574.9,783.8,1098.7,2252.2,119.8,79.6
0.349834,780.5,290.8,1082.0,76.7,2191.6,534.4,779.9,1098.3,2248.7,119.6,79.6
0.351834,775.2,269.8,1081.5,73.7,2165.8,499.4,775.7,1097.9,2245.3,119.4,79.6
0.353834,773.9,252.1,1081.3,70.3,2160.8,489.6,771.3,1097.6,2241.8,119.3,79.7
0.355834,778.1,250.8,1080.4,69.4,2180.9,511.2,766.7,1097.2,2238.4,119.1,79.7
0.357834,788.3,268.8,1078.4,74.6,2214.3,545.8,761.8,1096.8,2235,118.9,79.7
0.359834,798.8,289.2,1076.2,81.8,2243.5,575.5,756.6,1096.4,2231.7,118.7,79.6
0.361834,800.9,295.5,1075.8,83.0,2261.7,589.8,751.3,1096,2228.4,118.6,79.6
0.363834,794.5,291.0,1076.2,79.3,2263.7,572.0,745.8,1095.6,2225.2,118.4,79.5
0.365834,782.6,280.0,1075.9,76.6,2244.5,512.3,740.1,1095.2,2222,118.3,79.5
0.367834,768.1,256.5,1075.6,76.1,2214.0,440.6,734.2,1094.8,2218.9,118.1,79.4
0.369834,757.7,230.8,1076.5,74.3,2191.7,403.2,728.2,1094.4,2215.9,117.9,79.3
0.371834,752.7,214.6,1078.3,72.5,2172.9,391.0,722.1,1093.9,2213,117.8,79.3
0.373834,753.0,213.6,1080.3,76.8,2156.3,384.7,715.9,1093.5,2210.1,117.6,79.2
0.375834,754.9,217.3,1082.6,87.2,2151.3,377.0,709.7,1093,2207.3,117.5,79.2
0.377834,751.9,209.2,1085.6,92.8,2152.1,370.2,703.4,1092.6,2204.6,117.3,79.2
0.379834,743.3,190.3,1088.5,89.0,2147.5,362.3,697.1,1092.1,2202,117.2,79.2
0.381834,735.2,174.7,1090.2,87.2,2138.0,349.2,690.7,1091.6,2199.5,117,79.2
0.383834,728.6,164.3,1092.0,95.3,2130.6,330.6,684.5,1091.1,2197,116.8,79.2
0.385834,720.9,151.5,1094.9,106.0,2127.4,316.7,678.2,1090.7,2194.7,116.7,79.2
0.387834,710.8,134.1,1098.5,108.6,2128.1,310.0,672,1090.2,2192.4,116.5,79.2
0.389834,702.4,121.4,1102.5,110.2,2136.2,307.1,666,1089.7,2190.3,116.4,79.2
0.391834,696.1,115.8,1107.6,122.8,2150.6,300.5,660,1089.3,2188.2,116.2,79.2
0.393834,689.0,111.1,1113.0,141.6,2163.6,289.0,654.2,1088.8,2186.3,116.1,79.3
0.395834,679.9,101.8,1114.2,144.3,2172.7,277.3,648.6,1088.3,2184.4,115.9,79.3
0.397834,671.1,92.2,1111.4,134.5,2180.2,267.6,643.1,1087.9,2182.7,115.8,79.2
0.399834,664.9,91.6,1107.0,130.1,2183.5,264.1,637.9,1087.5,2181,115.6,79.2
0.401834,660.5,103.4,1103.7,133.5,2180.9,267.0,632.9,1087.1,2179.5,115.5,79.1
0.403834,652.4,114.1,1101.6,127.8,2178.9,267.5,628.2,1086.7,2178,115.3,79
0.405834,637.3,106.7,1100.8,108.5,2183.5,255.8,623.7,1086.3,2176.7,115.2,78.8
0.407834,621.3,90.1,1100.5,91.6,2193.3,229.4,619.5,1086,2175.5,115,78.7
0.409834,607.1,79.2,1100.3,84.2,2202.0,193.6,615.6,1085.6,2174.3,114.9,78.6
0.411834,594.7,73.6,1099.5,80.8,2205.9,162.8,612,1085.3,2173.3,114.8,78.4
0.413834,584.5,65.7,1097.8,73.7,2207.2,144.7,608.8,1085.1,2172.4,114.6,78.3
0.415834,574.2,55.2,1095.7,65.5,2207.7,134.0,605.9,1084.8,2171.6,114.5,78
0.417834,561.5,48.8,1093.3,63.3,2205.5,128.4,603.4,1084.6,2170.9,114.4,77.6
0.419834,547.5,51.3,1089.6,68.3,2202.3,123.6,601.2,1084.4,2170.3,114.3,77.1
0.421834,533.6,60.1,1082.7,71.1,2204.1,115.8,599.5,1084.3,2169.8,114.2,76.5
0.423834,520.2,72.8,1074.5,66.6,2212.9,108.6,598.1,1084.1,2169.4,114.1,75.9
0.425834,503.6,95.8,1067.3,60.7,2227.1,108.4,597.1,1084.1,2169.2,114,75.1
0.427834,481.7,134.0,1062.3,58.6,2240.1,116.4,596.5,1084,2169,114,74.3
0.429834,457.7,174.6,1058.2,56.4,2249.0,122.1,596.3,1084,2169,113.9,73.5
