time,f1,b1,f2,b2,f3,b3,f1p,f2p,f3p,f0,intensity
0.025336,591.0,96.7,1242.5,101.9,2589.5,130.1,549.6,1224.7,2591.2,0,60.1
0.027336,570.1,98.6,1239.5,102.3,2583.7,133.9,547.5,1222.7,2592.5,0,60.9
0.029336,551.2,93.2,1233.5,100.8,2580.3,146.7,544,1219.5,2594.6,0,61.9
0.031336,537.3,91.4,1223.8,105.2,2586.5,180.9,539.3,1215,2597.4,0,62.9
0.033336,525.3,93.9,1212.1,107.0,2600.8,231.3,533.3,1209.4,2600.9,0,63.8
0.035336,513.2,90.5,1200.7,95.4,2610.8,256.7,526.3,1202.7,2605.1,0,64.6
0.037336,502.6,80.7,1191.8,79.2,2615.1,240.7,518.3,1195.2,2609.7,0,65.1
0.039336,492.7,68.7,1184.2,64.7,2621.2,204.9,509.5,1186.8,2614.8,0,65.4
0.041336,483.0,58.8,1176.5,54.5,2630.0,171.7,500.1,1177.7,2620.2,0,65.5
0.043336,473.9,53.8,1167.0,49.1,2638.8,154.1,490.2,1168.1,2625.8,0,65.4
0.045336,466.7,53.2,1154.0,47.2,2644.5,153.6,480,1158.1,2631.4,0,65.2
0.047336,463.2,54.1,1141.1,47.5,2646.8,162.3,469.7,1147.8,2637.1,0,65
0.049336,461.3,56.8,1130.2,51.5,2652.1,169.5,459.4,1137.4,2642.6,0,64.8
0.051336,458.2,65.4,1120.9,62.6,2661.4,174.8,449.3,1127,2647.9,0,64.7
0.053336,451.4,83.5,1110.7,84.5,2667.7,183.6,439.5,1116.7,2653,0,64.8
0.055336,439.2,107.8,1096.5,115.1,2666.4,201.7,430.2,1106.5,2657.8,128.7,65
0.057336,422.9,131.2,1074.6,151.1,2662.3,233.1,421.5,1096.7,2662.3,128.7,65.4
0.059336,410.1,144.2,1050.1,182.3,2661.0,272.6,413.4,1087.2,2666.4,128.7,65.9
0.061336,403.9,141.5,1034.7,198.9,2662.0,313.2,406.1,1078,2670.1,128.7,66.5
0.063336,401.6,127.5,1036.8,207.1,2665.5,342.7,399.5,1069.3,2673.6,128.8,67
0.065336,397.3,109.7,1052.2,223.2,2667.2,350.6,393.8,1061,2676.8,128.8,67.5
0.067336,390.3,91.6,1072.8,252.1,2659.9,333.5,388.8,1053.1,2679.7,128.8,67.9
0.069336,383.9,74.9,1089.7,291.9,2647.5,302.6,384.6,1045.6,2682.5,128.8,68.3
0.071336,380.7,64.9,1084.2,325.9,2637.0,276.2,381.2,1038.4,2685.2,128.8,68.7
0.073336,378.3,63.2,1050.4,333.4,2630.6,266.0,378.5,1031.6,2687.8,128.8,69.1
0.075336,375.4,66.3,1010.7,313.7,2627.9,286.7,376.4,1025,2690.6,128.7,69.4
0.077336,374.7,72.5,995.9,308.4,2630.0,365.2,374.8,1018.6,2693.4,128.7,69.7
0.079336,377.4,83.6,1005.3,344.7,2654.6,508.8,373.8,1012.5,2696.4,128.7,70
0.081336,380.2,95.0,1025.3,400.1,2733.4,629.3,373.1,1006.4,2699.6,128.6,70.3
0.083336,380.5,99.4,1039.9,431.3,2820.6,559.9,372.8,1000.4,2703.1,128.5,70.5
0.085336,378.9,94.2,1037.1,415.1,2816.3,429.9,372.7,994.5,2706.8,128.5,70.7
0.087336,377.1,85.1,1023.8,378.2,2789.6,340.2,372.7,988.7,2710.8,128.4,70.9
0.089336,374.4,76.3,1005.3,345.2,2772.9,281.4,372.9,982.8,2715,128.3,71.1
0.091336,371.0,68.5,981.1,322.4,2767.6,244.1,373,977.1,2719.5,128.2,71.2
0.093336,369.2,63.9,959.4,315.5,2766.9,223.2,373.1,971.4,2724.1,128,71.3
0.095336,369.4,63.4,948.5,320.9,2756.4,210.6,373.1,965.9,2728.7,127.9,71.3
0.097336,369.4,64.1,946.0,322.8,2732.9,199.3,373.1,960.6,2733.3,127.7,71.3
0.099336,368.1,63.3,943.8,313.9,2709.2,187.9,372.9,955.5,2737.7,127.6,71.2
0.101336,366.8,61.2,940.7,308.1,2697.4,185.7,372.6,950.8,2741.9,127.4,71.1
0.103336,366.4,60.9,938.3,323.2,2698.1,193.0,372.3,946.6,2745.6,127.2,71
0.105336,365.9,63.8,934.8,364.6,2709.4,198.8,371.8,942.9,2748.8,127,70.8
0.107336,365.6,69.1,926.3,426.0,2726.6,191.8,371.2,939.9,2751.4,126.8,70.7
0.109336,366.5,73.6,916.3,473.3,2734.4,167.0,370.6,937.7,2753.1,126.5,70.6
0.111336,368.0,74.5,911.7,481.3,2724.3,135.7,369.9,936.4,2753.9,126.3,70.5
0.113336,369.0,71.3,914.1,458.7,2703.0,107.6,369.3,936,2753.7,126,70.5
0.115336,370.2,66.3,923.4,437.6,2685.7,93.3,368.7,936.8,2752.5,125.8,70.5
0.117336,372.4,63.8,937.8,437.5,2685.9,98.8,368.2,938.7,2750.1,125.5,70.5
0.119336,373.9,64.9,948.5,430.9,2707.0,124.8,367.7,941.8,2746.6,125.2,70.4
0.121336,372.9,68.9,951.2,392.8,2740.2,165.1,367.3,946.2,2741.9,124.9,70.4
0.123336,370.3,72.2,949.9,341.7,2767.5,206.2,367,952,2736,124.6,70.2
0.125336,369.0,72.8,950.9,305.4,2778.9,236.4,366.8,959,2729.1,124.3,70.1
0.127336,369.0,74.2,955.4,294.1,2776.0,239.3,366.6,967.3,2721.2,124,69.8
0.129336,368.1,79.8,962.4,300.9,2763.7,213.8,366.5,976.9,2712.4,123.7,69.5
0.131336,365.8,88.1,970.9,310.1,2744.4,185.1,366.3,987.7,2702.8,123.3,69.2
0.133336,365.0,97.0,983.8,324.1,2716.1,172.2,366.2,999.6,2692.7,123,68.9
0.135336,366.5,106.6,1006.5,364.4,2677.7,165.1,365.9,1012.6,2682.1,122.7,68.6
0.137336,368.0,114.6,1047.3,447.4,2646.1,148.6,365.5,1026.4,2671.3,122.3,68.3
0.139336,369.0,116.2,1101.8,555.9,2639.5,136.9,364.8,1041.1,2660.4,122,68.1
0.141336,370.9,114.0,1146.1,629.4,2648.1,138.7,364,1056.3,2649.6,121.7,67.8
0.143336,372.2,116.6,1160.1,626.5,2664.8,150.3,362.8,1072.1,2639.2,121.3,67.6
0.145336,368.8,130.7,1148.5,555.0,2689.8,165.7,361.3,1088.2,2629.2,121,67.3
0.147336,358.9,154.2,1125.0,454.0,2713.9,182.2,359.4,1104.5,2619.8,120.7,66.9
0.149336,348.9,179.0,1107.9,385.2,2709.1,205.3,357,1120.8,2611.3,120.4,66.6
0.151336,342.6,205.3,1106.2,368.2,2642.0,217.7,354.3,1137,2603.6,120.1,66.3
0.153336,338.0,226.2,1129.5,393.8,2567.3,181.0,351.1,1153,2596.9,119.8,66.1
0.155336,333.3,233.2,1169.4,444.2,2533.4,151.8,347.4,1168.5,2591.3,119.5,66
0.157336,331.4,227.1,1195.4,483.7,2519.2,145.4,343.4,1183.6,2586.7,119.2,66.1
0.159336,331.6,217.6,1191.5,481.1,2509.2,151.8,338.9,1198,2583.3,119,66.2
0.161336,329.6,196.5,1163.5,398.4,2502.0,166.1,334.2,1211.7,2580.8,118.7,66.4
0.163336,327.0,157.5,1139.1,282.4,2506.2,192.1,329.2,1224.6,2579.4,118.5,66.6
0.165336,327.6,127.7,1132.5,214.1,2531.2,238.4,324,1236.6,2578.8,118.3,66.7
0.167336,330.6,124.3,1146.8,203.3,2572.5,315.5,318.7,1247.8,2579.1,118.1,66.7
0.169336,331.9,154.7,1189.6,252.3,2600.1,435.9,313.4,1257.9,2580.1,117.9,66.7
0.171336,325.2,204.7,1258.4,329.9,2583.2,589.6,308.1,1267.1,2581.5,117.8,66.6
0.173336,311.7,232.7,1317.3,363.1,2545.8,631.9,303.1,1275.4,2583.4,117.6,66.5
0.175336,301.8,228.7,1344.7,347.2,2555.2,522.6,298.4,1282.6,2585.5,117.5,66.4
0.177336,297.3,204.7,1341.1,315.2,2590.6,405.7,294.1,1288.8,2587.7,117.4,66.4
0.179336,291.8,167.8,1326.4,274.3,2619.3,353.4,290.3,1294.1,2589.8,117.3,66.5
0.181336,284.0,124.4,1316.4,229.2,2634.1,362.3,287,1298.3,2591.7,117.2,66.6
0.183336,278.1,90.3,1313.2,199.7,2627.9,415.0,284.4,1301.7,2593.4,117.2,66.7
0.185336,275.3,69.9,1314.4,191.7,2608.5,468.3,282.5,1304,2594.6,117.1,66.9
0.187336,274.7,60.4,1320.1,203.4,2611.0,491.6,281.3,1305.4,2595.4,117.1,67.1
0.189336,276.1,55.8,1328.6,220.7,2647.2,483.0,280.9,1305.9,2595.6,117.1,67.2
