time,f1,b1,f2,b2,f3,b3,f1p,f2p,f3p,f0,intensity
0.025526,463.3,131.0,1590.6,66.9,2625.6,196.2,487.2,1553.8,2641.2,161.8,68.8
0.027526,474.8,121.2,1584.0,68.2,2625.0,195.5,488.7,1552,2640.9,161.7,69.2
0.029526,483.1,105.3,1574.7,69.4,2628.8,200.1,491.2,1548.8,2640.5,161.5,69.8
0.031526,489.0,87.7,1562.9,71.1,2637.3,206.4,494.6,1544.5,2639.9,161.2,70.4
0.033526,494.2,73.0,1547.9,72.0,2644.4,208.4,499,1539.1,2639.1,161,70.9
0.035526,499.6,61.8,1529.2,69.2,2646.0,200.8,504.2,1532.6,2638.2,160.7,71.4
0.037526,505.6,54.5,1510.6,63.9,2644.5,184.3,510.2,1525.1,2637.2,160.4,71.7
0.039526,513.0,50.3,1494.6,58.9,2642.6,161.8,517,1516.8,2636.2,160.1,71.9
0.041526,521.5,50.1,1484.5,55.8,2642.1,136.4,524.4,1507.8,2635,159.8,72
0.043526,530.9,55.7,1480.8,55.8,2644.4,113.5,532.5,1498.1,2633.9,159.5,71.9
0.045526,542.1,67.8,1478.5,59.1,2647.9,97.0,541,1487.9,2632.7,159.1,71.6
0.047526,558.6,84.0,1470.6,62.3,2648.8,86.1,550,1477.3,2631.6,158.8,71.4
0.049526,579.9,91.0,1456.3,59.4,2644.6,80.8,559.3,1466.5,2630.5,158.5,71.2
0.051526,599.9,82.6,1440.6,51.5,2636.1,80.1,568.9,1455.6,2629.6,158.1,71.2
0.053526,611.8,69.3,1428.8,44.4,2625.7,84.0,578.6,1444.7,2628.8,157.8,71.3
0.055526,617.2,60.2,1421.4,41.0,2617.5,92.4,588.3,1433.9,2628.1,157.4,71.7
0.057526,620.1,55.7,1415.1,40.3,2614.2,105.0,598.1,1423.3,2627.6,157.1,72
0.059526,622.7,53.1,1407.2,40.0,2616.0,118.0,607.7,1413.1,2627.2,156.8,72.4
0.061526,625.1,50.7,1397.9,38.5,2619.0,125.8,617.1,1403.3,2627.1,156.5,72.7
0.063526,627.4,48.7,1387.3,36.6,2618.9,132.6,626.2,1393.9,2627.2,156.2,72.9
0.065526,629.8,47.6,1376.2,35.3,2614.9,143.8,635,1385.2,2627.6,155.9,73.1
0.067526,632.8,47.6,1366.6,34.6,2611.1,159.3,643.4,1377,2628.1,155.6,73.2
0.069526,636.4,49.3,1360.4,34.2,2615.1,168.2,651.4,1369.4,2629,155.4,73.2
0.071526,641.0,53.2,1357.3,34.6,2626.2,154.9,658.9,1362.5,2630,155.2,73.3
0.073526,647.1,58.3,1356.6,36.3,2637.1,131.6,665.8,1356.2,2631.2,155,73.3
0.075526,654.1,63.5,1358.4,39.9,2643.3,117.6,672.2,1350.6,2632.7,154.8,73.3
0.077526,661.6,69.5,1362.4,45.5,2646.2,110.9,678,1345.6,2634.3,154.6,73.3
0.079526,668.9,74.6,1366.0,52.8,2647.8,106.0,683.2,1341.2,2636.1,154.4,73.2
0.081526,676.2,77.3,1365.9,60.0,2648.3,100.5,687.9,1337.3,2638.1,154.3,73.2
0.083526,683.5,79.0,1361.3,65.7,2647.2,96.9,691.9,1333.8,2640.2,154.1,73.1
0.085526,689.6,80.7,1353.1,70.6,2645.5,100.2,695.5,1330.8,2642.3,153.9,73
0.087526,693.5,82.0,1344.9,73.7,2645.2,111.2,698.5,1328.2,2644.6,153.8,72.9
0.089526,697.3,85.0,1338.3,74.3,2645.4,128.6,701,1325.9,2646.9,153.6,72.7
0.091526,701.9,91.2,1332.5,73.6,2645.6,152.4,703.1,1323.7,2649.2,153.3,72.6
0.093526,706.1,97.5,1325.7,72.8,2649.1,175.6,704.7,1321.8,2651.5,153.1,72.5
0.095526,710.5,100.9,1318.0,72.7,2659.7,181.7,706,1319.9,2653.8,152.8,72.3
0.097526,715.1,102.5,1310.5,74.8,2673.8,170.1,707,1318.1,2656,152.4,72.2
0.099526,718.2,103.3,1304.3,79.7,2685.0,160.9,707.7,1316.3,2658.2,152,72.1
0.101526,719.3,104.1,1300.8,84.6,2688.6,168.9,708.2,1314.4,2660.2,151.5,71.9
0.103526,719.4,107.5,1298.9,89.0,2683.1,199.9,708.6,1312.5,2662.2,150.9,71.8
0.105526,718.7,113.0,1297.4,92.3,2663.5,259.0,708.9,1310.4,2664,150.2,71.6
0.107526,716.7,115.6,1295.8,93.6,2628.2,334.7,709.1,1308.2,2665.7,149.4,71.5
0.109526,715.1,115.0,1295.0,91.4,2600.3,368.2,709.3,1305.8,2667.2,148.4,71.3
0.111526,716.3,116.0,1295.6,85.0,2610.8,315.3,709.5,1303.3,2668.7,147.4,71.2
0.113526,718.0,119.4,1295.3,77.7,2636.9,237.9,709.8,1300.6,2670,146.2,71
0.115526,717.9,124.4,1293.3,70.7,2657.9,180.1,710.3,1297.9,2671.1,144.8,70.9
0.117526,715.8,131.7,1290.9,64.6,2672.0,148.3,710.8,1295,2672.2,143.3,70.9
0.119526,713.0,137.9,1289.2,59.6,2682.6,137.2,711.6,1292,2673.1,141.7,70.8
0.121526,711.2,139.0,1288.7,56.5,2693.4,139.3,712.5,1289,2674,139.9,70.8
0.123526,711.5,135.8,1289.1,54.8,2705.0,145.8,713.6,1286,2674.8,138,70.8
0.125526,712.3,131.8,1288.1,53.3,2711.5,151.1,714.8,1283.1,2675.5,135.9,70.8
0.127526,711.4,128.3,1283.8,50.9,2709.6,163.0,716.3,1280.2,2676.1,133.8,70.8
0.129526,708.7,125.0,1277.5,47.5,2698.3,194.3,717.9,1277.4,2676.8,131.5,70.8
0.131526,706.2,120.2,1272.6,43.7,2678.7,247.3,719.7,1274.8,2677.4,129.2,70.8
0.133526,707.0,114.1,1271.0,40.9,2660.1,295.7,721.6,1272.3,2678.1,126.7,70.8
0.135526,712.3,108.8,1271.7,40.4,2659.3,301.0,723.6,1270,2678.8,124.3,70.7
0.137526,720.1,105.3,1272.0,41.7,2672.0,272.3,725.6,1268,2679.5,121.8,70.5
0.139526,724.9,102.9,1269.4,43.0,2683.3,253.5,727.7,1266.2,2680.3,0,70.4
0.141526,724.9,102.5,1263.9,44.4,2691.3,264.2,729.8,1264.6,2681.1,117,70.3
0.143526,722.9,107.7,1258.4,48.9,2692.5,299.6,731.9,1263.3,2682,114.6,70.2
0.145526,725.4,117.1,1256.2,61.4,2683.3,303.6,733.8,1262.1,2683,112.4,70.3
0.147526,734.8,120.8,1258.1,82.6,2677.5,248.3,735.6,1261.2,2684.1,110.3,70.5
0.149526,746.3,111.6,1263.6,103.7,2680.3,185.2,737.3,1260.4,2685.2,108.3,70.8
0.151526,753.1,96.4,1267.0,104.6,2686.0,145.0,738.7,1259.7,2686.4,106.6,71.1
0.153526,756.1,83.8,1265.2,86.1,2691.1,126.6,739.8,1259.1,2687.7,105,71.3
0.155526,756.9,77.6,1261.8,66.6,2693.1,131.8,740.6,1258.5,2689.1,103.7,71.5
0.157526,755.8,76.8,1260.2,56.8,2691.1,162.4,741.1,1257.9,2690.5,102.7,71.5
0.159526,752.7,77.9,1261.1,56.1,2689.1,201.9,741.2,1257.2,2692,101.9,71.4
0.161526,749.0,77.9,1264.1,60.5,2693.6,209.9,740.9,1256.3,2693.5,101.3,71.3
0.163526,745.5,76.5,1267.5,65.7,2701.3,183.8,740.2,1255.2,2695,101.1,71
0.165526,742.0,76.0,1267.5,66.9,2706.3,159.0,739.1,1253.8,2696.5,101.1,70.8
0.167526,736.9,79.5,1263.9,64.9,2708.7,155.2,737.5,1252.1,2698,101.4,70.5
0.169526,729.1,87.6,1258.7,66.2,2708.4,200.0,735.4,1250.1,2699.4,102,70.2
0.171526,720.5,96.4,1253.8,76.6,2700.3,327.8,732.9,1247.5,2700.9,102.9,70
0.173526,716.8,100.9,1249.5,93.9,2677.4,453.0,730,1244.6,2702.2,103.9,69.7
0.175526,716.4,100.5,1244.1,109.6,2665.5,485.9,726.7,1241.1,2703.5,105.3,69.5
0.177526,712.9,97.6,1234.9,111.8,2665.9,479.4,723,1237.2,2704.6,106.8,69.2
0.179526,702.9,96.4,1222.5,101.4,2666.0,460.9,718.9,1232.7,2705.7,108.5,68.9
0.181526,687.4,100.3,1209.2,89.5,2667.2,437.1,714.4,1227.8,2706.7,110.4,68.8
0.183526,679.3,107.9,1195.5,86.9,2677.0,430.3,709.7,1222.4,2707.5,112.4,68.8
0.185526,687.4,111.3,1183.4,91.6,2694.5,461.3,704.8,1216.6,2708.3,114.4,69.1
0.187526,699.3,106.3,1177.8,93.2,2718.7,543.2,699.6,1210.4,2708.9,0,69.4
0.189526,707.6,99.6,1180.6,91.1,2759.3,658.1,694.3,1203.8,2709.4,118.8,69.7
0.191526,710.8,97.5,1188.5,89.4,2794.4,691.9,689,1197,2709.8,121,70
0.193526,708.6,98.9,1194.8,89.5,2788.2,606.8,683.6,1190,2710.1,123.2,70.1
0.195526,702.3,100.0,1195.4,91.5,2752.8,474.2,678.2,1182.9,2710.3,125.4,70.2
0.197526,694.9,98.3,1191.2,97.0,2722.4,360.0,672.9,1175.8,2710.4,127.5,70.3
0.199526,687.6,94.1,1183.8,107.0,2705.6,286.5,667.8,1168.8,2710.5,129.5,70.3
0.201526,680.1,87.8,1175.3,117.4,2698.8,239.7,662.9,1162,2710.4,131.5,70.3
0.203526,671.8,80.5,1168.9,121.4,2699.8,224.2,658.3,1155.4,2710.4,133.3,70.2
0.205526,662.6,72.8,1164.7,120.5,2704.0,239.0,654,1149.2,2710.2,135,70.2
0.207526,655.1,66.4,1160.0,120.3,2708.7,275.3,650.1,1143.5,2710.1,136.6,70.2
0.209526,649.8,63.5,1152.1,123.9,2712.6,317.0,646.6,1138.4,2709.9,138,70.1
0.211526,645.0,65.5,1141.3,131.2,2714.5,344.8,643.5,1133.9,2709.8,139.3,70
0.213526,639.7,70.9,1131.8,138.6,2711.8,348.0,641,1130.2,2709.7,140.5,69.8
0.215526,634.2,75.9,1127.7,144.3,2704.7,343.9,639,1127.1,2709.5,141.5,69.5
0.217526,626.6,80.3,1123.8,155.5,2696.4,363.9,637.5,1125,2709.4,142.4,69.1
0.219526,613.6,85.5,1113.0,181.3,2687.1,421.7,636.7,1123.6,2709.4,143.2,68.6
0.221526,595.5,91.0,1092.0,222.8,2670.4,482.5,636.4,1123.2,2709.4,143.9,68.1
