time,f1,b1,f2,b2,f3,b3,f1p,f2p,f3p,f0,intensity
0.025961,405.7,442.7,1289.2,783.5,2468.5,1282.4,409.5,1139.5,2468.2,148.7,69.7
0.027961,406.9,355.9,1291.1,787.9,2557.6,1063.0,408.6,1133.4,2468.9,148.2,71.1
0.029961,405.8,306.2,1198.8,778.6,2512.4,821.9,407.1,1123.8,2470,147.8,72.2
0.031961,401.3,257.6,1086.5,698.5,2462.6,633.3,405.1,1111.2,2471.5,147.3,73.2
0.033961,398.3,220.8,1007.1,616.7,2435.9,555.6,402.6,1096.4,2473.6,146.8,74.1
0.035961,397.0,196.2,957.7,536.8,2423.6,574.4,399.7,1080.5,2476.2,146.3,74.9
0.037961,396.9,179.2,940.2,450.0,2425.1,687.1,396.5,1064.4,2479.2,145.8,75.7
0.039961,398.7,172.6,945.5,395.6,2432.8,876.2,393,1049.2,2482.9,145.3,76.3
0.041961,400.0,169.7,959.3,376.0,2448.0,1053.2,389.4,1035.7,2487,144.9,76.8
0.043961,396.7,154.9,974.3,359.7,2486.8,996.2,385.7,1024.8,2491.7,144.4,77.3
0.045961,390.4,129.9,994.2,331.0,2531.0,734.7,382,1016.9,2496.8,143.9,77.7
0.047961,383.2,107.9,1022.8,298.4,2551.2,476.6,378.3,1012.6,2502.4,143.5,78.1
0.049961,375.7,94.0,1047.7,273.0,2551.7,327.2,374.8,1011.7,2508.4,143,78.4
0.051961,368.0,82.8,1065.4,255.8,2543.7,240.7,371.4,1014.1,2514.8,142.6,78.6
0.053961,361.7,74.3,1078.0,245.2,2533.6,195.3,368.3,1019.5,2521.3,142.1,78.9
0.055961,356.1,69.1,1089.0,235.8,2525.0,172.3,365.4,1027,2528.1,141.7,79.1
0.057961,352.3,66.9,1094.4,229.2,2522.4,163.3,362.7,1036.1,2534.9,141.3,79.4
0.059961,351.1,66.2,1092.7,227.6,2526.9,158.4,360.4,1045.9,2541.6,140.9,79.5
0.061961,352.4,66.9,1086.6,228.9,2537.9,153.8,358.3,1055.4,2548.2,140.5,79.7
0.063961,354.1,67.5,1081.0,228.4,2550.0,150.1,356.4,1063.8,2554.6,140.1,79.8
0.065961,355.6,66.9,1074.7,227.8,2559.2,150.8,354.9,1070.5,2560.7,139.7,79.9
0.067961,357.6,68.3,1066.5,234.9,2564.0,160.6,353.6,1074.9,2566.4,139.4,80
0.069961,360.4,73.7,1058.3,251.1,2566.6,180.7,352.5,1076.7,2571.7,139,80
0.071961,362.2,80.1,1050.7,267.5,2569.2,201.1,351.7,1075.9,2576.6,138.6,79.9
0.073961,361.0,82.5,1039.3,272.9,2573.4,203.2,351.1,1072.5,2581.1,138.2,79.8
0.075961,357.4,81.3,1021.2,269.6,2580.3,181.1,350.7,1067,2585.2,137.8,79.7
0.077961,352.9,78.8,1007.0,267.9,2587.1,151.6,350.6,1060,2588.8,137.4,79.6
0.079961,348.6,76.5,1004.7,277.0,2593.6,131.7,350.8,1052.3,2592.1,137,79.5
0.081961,346.1,76.3,1011.7,295.7,2600.7,128.2,351.2,1044.5,2595.1,136.6,79.4
0.083961,345.7,77.4,1021.2,313.2,2609.3,134.8,351.9,1037.6,2597.8,136.2,79.4
0.085961,347.0,75.1,1031.6,313.2,2616.5,139.6,352.8,1032.3,2600.3,135.7,79.3
0.087961,349.3,68.0,1043.5,291.0,2616.4,131.0,354.1,1029.3,2602.6,135.3,79.3
0.089961,353.1,59.7,1060.2,255.6,2610.5,113.0,355.6,1029.1,2604.7,134.8,79.3
0.091961,357.3,53.4,1075.9,224.1,2603.8,98.1,357.4,1031.9,2606.6,134.3,79.3
0.093961,361.0,48.3,1084.6,202.8,2598.8,88.7,359.5,1037.6,2608.5,133.9,79.3
0.095961,363.7,44.5,1086.2,192.6,2597.0,85.6,361.8,1046.1,2610.1,133.4,79.3
0.097961,366.3,41.7,1087.4,185.3,2598.1,91.8,364.4,1056.9,2611.7,132.9,79.3
0.099961,368.3,39.4,1092.9,176.4,2602.3,114.4,367.2,1069.3,2613,132.4,79.3
0.101961,369.6,37.9,1097.8,170.9,2610.0,152.5,370.1,1082.3,2614,131.9,79.3
0.103961,371.9,37.7,1097.3,172.1,2620.3,192.1,373.2,1095,2614.8,131.3,79.3
0.105961,375.4,38.8,1093.3,178.0,2624.8,199.2,376.4,1106.5,2615.3,130.8,79.2
0.107961,378.9,41.3,1090.4,187.0,2623.0,179.9,379.6,1115.7,2615.5,130.3,79.2
0.109961,382.1,45.9,1086.9,204.2,2620.1,158.5,382.8,1121.9,2615.2,129.8,79.2
0.111961,386.7,54.3,1082.6,233.4,2618.6,145.1,385.9,1124.4,2614.6,129.3,79.2
0.113961,394.2,66.8,1087.5,272.7,2618.4,140.6,388.9,1122.7,2613.6,128.8,79.3
0.115961,400.0,74.5,1101.9,298.3,2617.5,146.7,391.8,1116.9,2612.2,128.3,79.3
0.117961,400.6,71.6,1106.5,302.8,2613.1,163.7,394.6,1107,2610.5,127.9,79.3
0.119961,398.2,62.5,1092.7,298.9,2603.4,189.6,397.1,1093.4,2608.6,127.4,79.2
0.121961,396.6,54.7,1069.0,304.6,2590.2,214.0,399.4,1077,2606.5,126.9,79.1
0.123961,396.4,50.8,1048.8,331.2,2587.2,227.9,401.4,1058.5,2604.4,126.5,78.9
0.125961,396.1,47.4,1046.2,354.5,2597.3,231.2,403.2,1039.2,2602.2,126.1,78.6
0.127961,394.8,43.3,1055.0,358.7,2607.3,206.4,404.7,1020.2,2600.2,125.7,78.2
0.129961,393.8,44.4,1057.6,374.5,2608.1,159.7,405.9,1002.7,2598.4,125.3,77.6
0.131961,395.3,58.3,1041.2,440.1,2604.5,118.4,406.9,987.8,2596.8,125,76.9
0.133961,402.0,88.3,1001.1,529.0,2599.8,93.0,407.6,976.4,2595.7,124.7,76
0.135961,415.4,132.8,946.1,584.2,2594.5,73.8,408,969.2,2595,124.3,75.1
0.137961,438.1,199.3,889.0,599.9,2590.0,60.0,408.1,966.8,2594.7,124.1,74.1
