time,f1,b1,f2,b2,f3,b3,f1p,f2p,f3p,f0,intensity
0.025948,332.3,52.4,996.3,417.8,2512.7,22.9,334.7,1038.6,2538.1,162.3,79.6
0.027948,333.4,48.5,1039.0,411.5,2512.7,25.9,334.7,1037.1,2536.5,162.8,79.5
0.029948,335.1,48.6,1059.5,386.9,2512.6,28.7,334.7,1034.7,2533.5,163.3,79.5
0.031948,336.9,51.6,1057.0,357.6,2512.9,31.0,334.7,1031.7,2529.1,163.9,79.6
0.033948,338.4,54.8,1043.3,323.7,2515.0,34.2,334.9,1028.3,2522.8,164.5,79.7
0.035948,338.7,54.8,1032.1,289.8,2518.6,39.1,335.1,1024.9,2514.3,165.2,80
0.037948,337.7,51.7,1023.6,251.7,2521.7,46.9,335.4,1021.8,2503.4,165.9,80.3
0.039948,336.4,47.4,1014.6,213.0,2521.6,57.6,336,1019.4,2489.6,166.7,80.6
0.041948,335.6,43.0,1007.3,178.2,2517.4,75.7,336.8,1018,2472.9,167.5,81
0.043948,335.3,39.4,1005.0,150.9,2507.8,113.3,337.9,1018,2452.9,168.4,81.4
0.045948,336.1,38.2,1007.2,134.0,2487.7,186.9,339.2,1019.6,2429.8,169.4,81.8
0.047948,337.8,40.3,1012.9,127.4,2439.4,328.7,340.9,1023.1,2403.6,170.4,82.2
0.049948,340.1,45.0,1021.8,129.0,2361.6,501.4,343,1028.5,2374.7,171.4,82.6
0.051948,342.9,49.6,1032.3,128.4,2293.4,597.3,345.4,1035.9,2343.5,172.6,83
0.053948,346.5,53.1,1044.1,123.5,2265.5,585.4,348.1,1045.2,2310.7,173.8,83.3
0.055948,350.6,57.6,1058.5,122.8,2245.7,558.2,351.2,1056.2,2277,175,83.6
0.057948,355.4,64.8,1076.5,128.3,2213.7,565.9,354.6,1068.9,2243.2,176.3,83.8
0.059948,360.1,73.3,1093.7,136.1,2185.5,609.1,358.3,1082.8,2210.2,177.6,84
0.061948,364.9,81.9,1110.4,142.6,2164.0,673.6,362.2,1097.6,2178.9,179,84.2
0.063948,368.8,85.8,1123.0,144.3,2130.1,708.3,366.3,1113,2150.2,180.4,84.4
0.065948,372.1,83.9,1131.7,140.6,2085.5,673.9,370.5,1128.5,2125,181.9,84.4
0.067948,375.8,78.3,1141.2,133.4,2067.9,599.2,374.8,1143.9,2103.8,183.4,84.5
0.069948,380.2,72.0,1154.4,126.1,2085.7,534.4,379.2,1158.7,2087.2,185,84.5
0.071948,385.1,66.1,1171.6,119.6,2118.0,476.3,383.4,1172.7,2075.5,186.5,84.6
0.073948,389.6,61.9,1188.3,114.5,2138.5,419.5,387.7,1185.7,2068.8,188.1,84.6
0.075948,393.6,60.1,1202.0,110.4,2141.0,361.2,391.7,1197.4,2067.1,189.7,84.7
0.077948,396.8,61.4,1210.9,107.8,2131.0,308.7,395.7,1207.9,2070.1,191.3,84.7
0.079948,399.0,65.1,1215.1,107.0,2117.0,272.2,399.4,1217.2,2077.2,193,84.8
0.081948,401.0,68.4,1217.6,105.5,2103.3,242.7,403,1225.2,2087.7,194.6,84.9
0.083948,403.1,68.1,1220.3,101.3,2095.0,217.6,406.3,1232.2,2101,196.2,85
0.085948,405.8,63.7,1225.4,94.3,2092.9,195.1,409.5,1238.4,2116.1,197.9,85
0.087948,409.1,57.2,1232.5,86.4,2096.2,178.0,412.4,1244,2132,199.5,85.1
0.089948,412.6,49.5,1241.7,77.3,2103.7,163.9,415.2,1249.4,2148.1,201.1,85.1
0.091948,416.6,41.9,1253.4,67.5,2118.0,151.6,417.8,1254.6,2163.4,202.6,85.1
0.093948,420.5,36.6,1265.8,59.8,2139.2,143.5,420.3,1260.1,2177.3,204.2,85.1
0.095948,424.3,33.1,1277.7,53.9,2164.4,137.5,422.8,1266.1,2189.4,205.7,85.1
0.097948,427.0,30.7,1286.0,49.6,2184.6,132.2,425.1,1272.6,2199.2,207.2,85.1
0.099948,429.0,28.8,1291.9,46.2,2198.6,126.3,427.5,1279.9,2206.9,208.7,85.1
0.101948,430.5,27.5,1296.7,43.9,2207.6,121.1,429.8,1288,2212.4,210.1,85.1
0.103948,432.3,27.1,1302.2,43.0,2216.1,117.7,432.1,1296.8,2216.2,211.5,85.1
0.105948,434.4,27.7,1309.0,43.2,2225.7,116.1,434.5,1306.3,2218.8,212.8,85.1
0.107948,436.7,27.9,1315.7,42.9,2233.6,113.4,437,1316.2,2220.9,214.1,85.2
0.109948,439.4,26.5,1322.6,40.7,2240.0,108.1,439.5,1326.5,2223.4,215.3,85.2
0.111948,442.4,23.7,1330.2,37.3,2247.9,102.5,442,1336.8,2227.1,216.5,85.2
0.113948,445.9,20.2,1339.6,33.5,2260.6,98.8,444.6,1346.8,2232.9,217.6,85.2
0.115948,449.7,16.5,1350.7,29.7,2279.3,98.1,447.3,1356.3,2241.7,218.7,85.1
0.117948,452.9,13.9,1361.2,27.0,2300.3,102.3,450,1365.1,2254,219.7,85.1
0.119948,455.6,12.7,1370.4,26.5,2321.0,115.0,452.6,1372.8,2270.5,220.7,85.1
0.121948,457.3,13.0,1376.6,28.4,2334.0,136.3,455.3,1379.3,2291.5,221.6,85.1
0.123948,458.5,14.4,1380.5,32.3,2338.8,165.0,457.9,1384.4,2317,222.5,85.1
0.125948,459.5,16.1,1382.9,36.5,2339.8,193.5,460.4,1388.1,2346.7,223.3,85
0.127948,460.7,17.5,1385.5,40.1,2344.3,218.3,462.8,1390.4,2380.3,224.1,85
0.129948,462.2,18.5,1388.8,42.6,2356.1,236.0,465.2,1391.3,2417,224.8,84.9
0.131948,463.4,18.4,1391.4,43.7,2370.8,253.0,467.3,1391,2455.8,225.4,84.9
0.133948,464.6,17.3,1392.9,44.6,2389.6,292.3,469.3,1389.7,2495.6,226,84.8
0.135948,466.2,16.4,1394.8,47.0,2425.6,359.8,471.1,1387.6,2535.1,226.6,84.6
0.137948,468.6,16.4,1398.8,53.6,2517.5,443.8,472.7,1385,2573,227.1,84.4
0.139948,471.5,16.8,1403.8,64.3,2655.4,419.3,474.1,1382.1,2607.8,227.6,84.1
0.141948,474.0,16.6,1406.3,81.6,2724.2,300.0,475.2,1379.3,2638.4,228,83.7
0.143948,476.2,16.1,1402.7,112.6,2732.2,234.1,476.1,1376.8,2663.5,228.4,83.2
0.145948,478.1,16.8,1390.6,166.9,2723.0,202.7,476.7,1374.9,2682.2,228.7,82.6
0.147948,481.4,21.1,1360.6,282.7,2714.8,188.3,477.1,1373.7,2693.7,229,81.8
0.149948,488.1,32.6,1295.9,487.4,2705.4,194.7,477.2,1373.3,2697.6,229.3,81
