time,f1,b1,f2,b2,f3,b3,f1p,f2p,f3p,f0,intensity
0.025937,343.1,116.0,2158.8,196.1,2612.4,305.4,347,2186,2450.8,153.5,72.3
0.027937,348.6,110.4,2158.1,180.8,2602.0,292.3,347.2,2186,2452.8,153.4,73.6
0.029937,351.7,108.1,2160.5,191.1,2556.5,310.1,347.5,2186.1,2456.1,153.2,74.7
0.031937,351.1,107.7,2166.0,228.3,2481.9,329.8,347.9,2186.2,2460.5,153.1,75.7
0.033937,348.8,107.6,2171.5,272.5,2418.2,314.8,348.3,2186.4,2466,152.9,76.4
0.035937,347.5,105.6,2175.4,292.1,2390.7,293.7,348.7,2186.7,2472.3,152.8,77
0.037937,347.4,99.8,2181.3,301.6,2378.2,292.9,349.1,2187.4,2479.2,152.6,77.4
0.039937,347.1,92.0,2194.7,317.9,2363.8,325.4,349.4,2188.3,2486.5,152.5,77.8
0.041937,347.1,84.3,2219.0,295.9,2354.2,427.2,349.5,2189.5,2494.1,152.3,78
0.043937,348.0,78.5,2221.0,233.5,2406.6,571.8,349.5,2191.1,2501.7,152.2,78.2
0.045937,349.2,75.7,2216.0,193.9,2523.1,628.6,349.2,2193.2,2509.2,152.1,78.3
0.047937,349.6,74.2,2215.6,181.5,2601.2,585.3,348.6,2195.7,2516.5,151.9,78.4
0.049937,349.1,71.2,2218.7,188.5,2616.7,611.4,347.8,2198.7,2523.5,151.8,78.4
0.051937,348.4,67.7,2224.6,206.5,2576.9,719.7,346.6,2202.2,2530.2,151.7,78.5
0.053937,347.6,66.2,2233.4,221.9,2515.3,810.9,345.1,2206.1,2536.7,151.6,78.5
0.055937,346.1,64.6,2243.9,222.7,2473.2,914.0,343.3,2210.3,2542.9,151.5,78.6
0.057937,343.8,61.8,2247.8,211.7,2460.9,993.9,341.1,2214.8,2549.1,151.5,78.6
0.059937,340.2,58.7,2243.2,197.3,2479.6,1014.1,338.7,2219.5,2555.5,151.4,78.7
0.061937,335.9,55.4,2236.2,180.4,2501.2,990.6,336.1,2224.4,2562.2,151.4,78.7
0.063937,331.2,51.5,2230.1,159.7,2522.8,934.0,333.3,2229.2,2569.6,151.3,78.7
0.065937,326.4,48.3,2224.2,139.1,2561.0,842.6,330.4,2233.8,2577.8,151.3,78.7
0.067937,321.5,46.1,2218.8,120.8,2610.3,731.3,327.4,2238.2,2587.2,151.2,78.7
0.069937,318.0,43.7,2214.9,110.2,2645.8,618.0,324.4,2242.2,2597.9,151.2,78.7
0.071937,316.3,41.3,2212.0,106.8,2672.6,509.8,321.6,2245.8,2610.2,151.2,78.7
0.073937,315.7,39.8,2210.4,108.3,2697.6,431.3,318.8,2248.8,2624.3,151.2,78.7
0.075937,315.6,38.6,2211.1,110.0,2720.6,384.6,316.3,2251.1,2640.3,151.2,78.8
0.077937,315.5,37.6,2215.5,108.7,2741.0,372.7,314.1,2252.8,2658.1,151.2,78.9
0.079937,315.5,37.8,2224.2,104.1,2763.2,389.2,312.2,2253.8,2677.7,151.2,78.9
0.081937,315.6,38.1,2233.6,97.6,2785.0,431.6,310.6,2254.1,2699,151.2,78.9
0.083937,315.6,36.9,2241.0,91.6,2802.6,524.4,309.5,2253.8,2721.6,151.1,78.8
0.085937,314.6,35.0,2246.3,88.4,2804.8,694.5,308.7,2252.9,2745.3,151.1,78.8
0.087937,312.6,33.6,2251.5,89.1,2759.6,903.0,308.3,2251.7,2769.6,151.1,78.7
0.089937,310.5,32.8,2258.3,92.7,2690.2,979.0,308.3,2250.1,2793.9,151.1,78.7
0.091937,309.7,32.8,2263.4,92.7,2683.6,954.3,308.6,2248.4,2817.8,151.1,78.9
0.093937,310.0,33.7,2264.8,85.5,2730.4,937.7,309.2,2246.8,2840.6,151,79.1
0.095937,310.5,34.5,2264.6,74.2,2820.4,907.6,310,2245.4,2861.5,151,79.3
0.097937,311.2,35.0,2265.0,61.7,2907.0,732.2,311,2244.4,2880,150.9,79.5
0.099937,311.9,35.6,2266.9,51.6,2910.6,584.7,312.2,2244,2895.4,150.8,79.6
0.101937,312.7,36.7,2270.0,45.2,2897.7,499.1,313.4,2244.3,2907.1,150.7,79.7
0.103937,313.6,37.3,2273.3,41.8,2882.5,442.9,314.5,2245.6,2914.5,150.6,79.8
0.105937,314.2,37.0,2275.6,40.2,2867.5,397.7,315.6,2247.8,2917.1,150.5,79.8
0.107937,314.2,36.1,2276.0,39.5,2855.2,360.3,316.6,2251.1,2914.6,150.4,79.8
0.109937,313.9,34.4,2274.5,39.9,2846.4,338.2,317.4,2255.5,2906.8,150.2,79.8
0.111937,313.6,32.4,2272.1,41.8,2837.9,332.2,318,2260.9,2893.6,150,79.9
0.113937,313.2,31.0,2270.1,44.6,2827.5,329.5,318.3,2267.3,2875,149.8,79.9
0.115937,313.1,30.7,2270.1,47.4,2820.9,322.6,318.5,2274.6,2851.3,149.5,79.9
0.117937,313.5,31.3,2272.5,51.3,2821.5,309.3,318.4,2282.6,2822.7,149.2,79.9
0.119937,314.2,32.9,2275.9,58.6,2827.1,298.2,318.1,2291.1,2789.8,148.9,79.9
0.121937,315.3,35.6,2280.2,74.6,2832.9,310.8,317.7,2299.8,2753.3,148.6,80
0.123937,316.7,39.0,2285.7,104.3,2829.9,378.9,317.2,2308.4,2713.9,148.2,80
0.125937,317.7,42.7,2294.4,147.4,2805.8,519.3,316.7,2316.7,2672.5,147.8,80
0.127937,318.5,46.4,2309.4,195.2,2739.3,719.4,316.3,2324.2,2630,147.4,80
0.129937,319.4,49.2,2325.4,223.1,2641.1,874.0,316,2330.7,2587.4,146.9,80
0.131937,320.4,52.4,2332.2,223.7,2566.7,940.9,315.9,2335.8,2545.7,146.5,79.9
0.133937,321.7,56.7,2331.0,204.9,2529.4,1000.9,316.1,2339.3,2505.9,145.9,79.9
0.135937,323.8,61.9,2328.7,172.2,2493.8,1126.2,316.7,2340.8,2468.9,145.4,79.8
0.137937,326.3,67.4,2326.8,138.7,2426.4,1282.4,317.8,2340.1,2435.6,144.8,79.8
0.139937,328.2,72.8,2323.9,115.3,2336.8,1359.2,319.4,2337,2406.7,144.2,79.7
0.141937,329.1,76.5,2279.9,1322.4,2319.9,106.8,321.5,2331.5,2382.9,143.6,79.6
0.143937,329.6,80.3,2264.0,1229.2,2315.6,112.4,324.3,2323.4,2364.5,142.9,79.5
0.145937,330.2,88.5,2281.0,1145.6,2312.3,132.4,327.6,2312.8,2352,142.3,79.4
0.147937,331.1,99.4,2311.6,162.8,2313.4,1076.9,331.5,2299.7,2345.4,141.6,79.2
0.149937,332.6,105.1,2316.3,193.5,2325.1,997.7,336,2284.4,2344.6,140.8,79
0.151937,334.9,104.7,2299.0,892.5,2329.1,227.9,341,2267.1,2349.4,140.1,78.7
0.153937,338.4,102.6,2252.6,755.8,2352.2,277.3,346.4,2248.1,2359.4,139.4,78.4
0.155937,344.1,98.9,2213.5,627.1,2384.0,327.6,352.2,2227.7,2374,138.6,78.1
0.157937,351.0,92.7,2211.7,547.3,2394.8,366.2,358.1,2206.4,2392.5,137.9,77.8
0.159937,357.7,88.3,2257.9,454.7,2363.0,448.2,364.2,2184.6,2413.9,137.2,77.3
0.161937,362.8,90.4,2261.2,297.9,2369.7,593.0,370.3,2162.9,2437.5,136.4,76.8
0.163937,367.3,95.9,2244.3,252.3,2395.1,586.3,376.2,2141.8,2462.1,135.7,76.2
0.165937,373.7,100.1,2219.1,239.0,2448.1,507.4,381.8,2121.7,2486.9,135,75.5
0.167937,380.7,105.8,2189.6,231.5,2513.2,402.4,387,2103.1,2510.7,134.2,74.8
0.169937,383.5,125.4,2158.3,232.1,2555.7,309.3,391.6,2086.5,2532.7,133.5,74
0.171937,381.2,172.9,2129.5,250.3,2578.3,271.9,395.5,2072.3,2552,132.9,73.3
0.173937,385.2,255.1,2097.4,324.8,2594.8,296.3,398.7,2060.9,2567.9,132.2,72.7
0.175937,408.5,304.1,2028.7,476.9,2608.7,338.3,401.1,2052.5,2579.6,131.6,72.3
0.177937,431.6,271.9,1877.8,574.8,2636.3,303.1,402.5,2047.4,2586.9,131,72.1
0.179937,438.7,233.3,1736.0,550.6,2673.5,233.8,403,2045.6,2589.3,130.4,72
