time,f1,b1,f2,b2,f3,b3,f1p,f2p,f3p,f0,intensity
0.025224,673.9,230.6,1219.7,121.6,2438.3,81.6,665.3,1291.8,2420.5,213.5,77.1
0.027224,670.7,167.0,1273.7,89.9,2441.7,88.1,665,1299.3,2422.2,213.7,77.8
0.029224,664.1,132.0,1309.1,65.9,2443.9,105.0,664.5,1311.6,2424.8,213.9,78.5
0.031224,660.4,116.2,1336.4,53.6,2440.7,137.9,663.8,1328.4,2428.5,214.2,79.1
0.033224,660.8,113.3,1363.0,50.3,2427.0,183.1,662.8,1349.1,2433,214.4,79.7
0.035224,662.2,112.8,1392.0,49.7,2413.1,215.7,661.6,1373.4,2438.2,214.7,80.1
0.037224,661.4,106.2,1424.7,46.8,2415.0,219.6,660.2,1400.4,2444.1,214.9,80.4
0.039224,656.4,91.4,1456.0,40.1,2429.8,200.8,658.5,1429.7,2450.4,215.2,80.5
0.041224,649.5,75.8,1482.5,33.0,2446.4,177.4,656.5,1460.5,2457.1,215.4,80.5
0.043224,643.9,67.5,1507.1,28.7,2462.6,161.7,654.3,1492.1,2464,215.7,80.4
0.045224,642.1,72.3,1530.8,29.4,2475.6,160.7,651.7,1523.8,2470.9,215.9,80.2
0.047224,643.7,89.9,1554.4,34.9,2484.7,168.2,648.8,1555.1,2477.9,216.2,80
0.049224,647.0,119.7,1580.2,44.1,2490.0,178.0,645.5,1585.3,2484.7,216.4,79.7
0.051224,649.5,156.3,1606.4,55.4,2490.4,190.6,641.9,1614.1,2491.5,216.7,79.3
0.053224,648.7,191.9,1633.7,67.3,2488.9,208.6,637.8,1641,2498.1,216.9,78.9
0.055224,643.4,215.9,1662.8,76.8,2491.7,226.1,633.2,1665.8,2504.5,217.1,78.5
0.057224,634.0,224.6,1695.5,80.2,2504.0,229.8,628.2,1688.4,2510.9,217.3,78
0.059224,623.9,216.5,1725.1,76.6,2520.1,212.4,622.7,1708.8,2517.3,217.5,77.6
0.061224,615.0,197.4,1744.9,72.5,2530.6,195.2,616.6,1726.9,2523.9,217.7,77.1
0.063224,606.0,178.3,1756.0,74.3,2537.6,196.4,610.1,1743.1,2530.6,217.8,76.8
0.065224,597.6,171.9,1760.2,84.8,2548.4,217.6,603,1757.4,2537.8,218,76.5
0.067224,591.3,177.9,1759.7,103.6,2566.4,239.0,595.5,1770.2,2545.4,218.1,76.2
0.069224,586.5,186.7,1756.1,138.4,2582.7,237.5,587.5,1782,2553.7,218.1,76.1
0.071224,581.3,189.9,1755.2,206.0,2583.4,221.0,579.2,1792.9,2562.7,218.2,75.9
0.073224,575.5,188.9,1765.0,308.3,2576.2,221.1,570.4,1803.4,2572.6,218.2,75.9
0.075224,566.5,184.3,1787.8,397.0,2574.2,246.7,561.5,1813.9,2583.4,218.2,75.9
0.077224,553.5,177.2,1810.7,385.9,2584.4,278.0,552.3,1824.5,2595.3,218.2,76
0.079224,540.5,171.6,1826.4,329.0,2598.6,290.8,543,1835.7,2608,218.2,76.1
0.081224,529.3,166.3,1840.5,282.6,2610.4,288.1,533.8,1847.5,2621.8,218.1,76.2
0.083224,519.8,160.9,1857.1,257.1,2618.6,279.8,524.6,1860.2,2636.3,218,76.3
0.085224,510.3,158.6,1878.5,249.1,2625.6,274.1,515.7,1873.6,2651.5,217.9,76.3
0.087224,499.9,163.9,1909.1,257.1,2639.0,265.9,507,1887.9,2667.3,217.8,76.4
0.089224,491.8,173.8,1944.3,277.7,2666.8,237.8,498.7,1902.8,2683.3,217.6,76.5
0.091224,488.2,171.7,1974.9,307.7,2698.7,200.8,490.9,1918.3,2699.3,217.4,76.6
0.093224,487.4,156.7,1997.1,343.7,2723.1,176.8,483.7,1934,2715.1,217.2,76.8
0.095224,486.4,141.7,2006.6,382.7,2741.2,167.9,477,1949.7,2730.2,217,77
0.097224,482.7,133.7,1990.7,416.9,2755.0,177.9,470.9,1965.1,2744.3,216.7,77.2
0.099224,475.0,130.3,1963.3,449.4,2770.9,212.1,465.4,1980,2757.2,216.5,77.3
0.101224,464.0,123.9,1948.3,504.4,2792.6,277.4,460.4,1993.8,2768.4,216.2,77.3
0.103224,454.8,111.1,1956.8,587.1,2810.1,363.7,456.1,2006.5,2777.7,215.9,77.3
0.105224,450.1,100.1,1985.6,629.9,2819.4,429.5,452.2,2017.6,2784.8,215.6,77.3
0.107224,447.7,97.6,2010.4,543.4,2812.9,428.1,448.7,2027,2789.3,215.2,77.3
0.109224,445.4,105.2,2011.7,418.5,2785.0,421.7,445.5,2034.5,2791.1,214.9,77.2
0.111224,442.3,116.8,2010.0,348.7,2748.4,444.6,442.5,2039.9,2790.1,214.5,77.1
0.113224,438.3,124.5,2014.7,309.9,2722.3,466.0,439.6,2043.3,2786,214.2,77
0.115224,434.7,123.8,2028.3,277.2,2728.2,461.3,436.8,2044.5,2779,213.8,76.9
0.117224,431.4,116.7,2044.7,245.3,2755.4,438.8,433.8,2043.7,2768.9,213.4,76.8
0.119224,427.7,107.4,2055.8,222.1,2785.9,425.0,430.6,2041,2756,213,76.6
0.121224,423.7,100.6,2055.6,220.2,2803.5,436.5,427.1,2036.5,2740.3,212.6,76.5
0.123224,419.2,95.7,2048.4,237.9,2793.3,466.6,423.2,2030.5,2722,212.2,76.4
0.125224,413.8,88.9,2042.3,265.6,2750.6,532.0,419,2023.1,2701.5,211.7,76.3
0.127224,408.7,81.3,2035.2,293.6,2662.5,621.4,414.3,2014.7,2679.1,211.3,76.2
0.129224,404.9,76.3,2024.8,308.9,2576.3,596.9,409.2,2005.4,2655.1,210.9,76.2
0.131224,402.1,74.3,2013.7,312.0,2549.4,545.9,403.8,1995.7,2630,210.4,76.1
0.133224,399.8,73.8,1996.5,315.0,2548.9,524.4,398,1985.6,2604.2,210,75.9
0.135224,397.1,73.6,1967.9,320.2,2547.1,518.4,392,1975.5,2578.2,209.5,75.8
0.137224,393.2,73.3,1938.6,319.6,2533.3,514.2,385.8,1965.6,2552.4,209.1,75.7
0.139224,387.8,74.1,1927.0,309.9,2515.3,522.2,379.6,1956.2,2527.3,208.7,75.6
0.141224,381.8,76.9,1940.2,292.7,2514.2,569.3,373.6,1947.3,2503.4,208.2,75.5
0.143224,376.1,80.1,1957.2,269.5,2539.4,650.2,367.8,1939.2,2481.2,207.8,75.3
0.145224,370.2,83.1,1961.4,248.4,2584.8,764.5,362.4,1931.9,2461,207.4,75.1
0.147224,363.9,86.9,1950.6,236.1,2626.7,957.0,357.6,1925.6,2443.2,207,74.8
0.149224,357.3,93.4,1937.3,231.6,2584.6,1260.9,353.5,1920.4,2428.1,206.6,74.5
0.151224,349.6,102.6,1929.7,245.1,2417.3,1386.2,350.1,1916.2,2416.1,206.2,74.2
0.153224,341.6,109.4,1921.6,296.2,2283.9,1238.3,347.6,1913.3,2407.4,205.8,74
0.155224,335.0,110.9,1894.7,382.0,2258.6,1031.8,346.1,1911.5,2402.1,205.4,73.9
0.157224,329.0,105.3,1838.7,466.8,2297.0,870.3,345.6,1910.9,2400.3,205.1,74
