time,f1,b1,f2,b2,f3,b3,f1p,f2p,f3p,f0,intensity
0.025875,525.0,323.1,937.9,274.9,2540.6,1121.1,597.2,996.6,2693.4,0,71.3
0.027875,578.8,233.8,979.2,224.8,2696.7,1224.7,601,998.9,2693.2,0,71.8
0.029875,616.0,169.6,1005.5,179.9,2776.8,289.9,607.2,1002.7,2692.9,0,72.6
0.031875,636.0,123.2,1019.0,145.3,2722.9,336.6,615.6,1007.8,2692.5,0,73.5
0.033875,645.1,91.5,1025.9,118.7,2692.4,339.3,625.7,1014.1,2692,0,74.2
0.035875,651.2,72.4,1030.9,101.2,2692.6,301.2,637.1,1021.4,2691.4,0,74.7
0.037875,660.1,63.0,1038.0,96.1,2704.5,233.0,649.5,1029.6,2690.8,0,75.1
0.039875,673.2,63.4,1048.7,111.6,2711.2,173.5,662.3,1038.4,2690.2,0,75.3
0.041875,688.9,67.0,1062.4,147.4,2712.3,142.3,675.1,1047.5,2689.5,0,75.5
0.043875,703.8,67.9,1077.0,191.9,2709.3,136.5,687.4,1056.8,2688.7,0,75.6
0.045875,715.6,68.1,1089.9,222.5,2701.3,149.5,698.8,1065.9,2687.8,0,75.8
0.047875,724.4,71.9,1098.5,225.5,2689.0,169.8,709,1074.6,2686.7,0,76
0.049875,726.7,77.4,1096.5,200.4,2679.5,178.2,717.6,1082.8,2685.2,0,76.1
0.051875,722.9,79.7,1088.7,161.7,2674.1,171.7,724.7,1090.2,2683.4,0,76.1
0.053875,717.7,78.6,1083.1,128.4,2669.5,159.9,730,1096.6,2681.1,0,75.9
0.055875,715.0,81.6,1083.5,109.7,2660.0,153.3,733.6,1101.9,2678.3,0,75.5
0.057875,717.8,99.1,1090.1,109.9,2643.4,159.0,735.5,1106,2674.9,0,75
0.059875,725.2,126.3,1095.4,120.9,2634.6,171.3,736,1108.9,2670.9,0,74.5
0.061875,730.6,133.0,1096.3,126.3,2646.1,175.4,735.3,1110.6,2666.4,107.9,74.2
0.063875,726.5,108.4,1097.0,120.3,2668.6,158.4,733.6,1111.2,2661.4,107.9,74.2
0.065875,717.9,81.5,1098.7,113.9,2683.2,132.5,731.2,1110.7,2656.2,107.8,74.4
0.067875,712.7,67.9,1099.0,112.7,2683.9,115.2,728.5,1109.2,2650.8,107.8,74.7
0.069875,712.2,63.4,1096.6,112.6,2676.3,106.6,725.6,1107,2645.7,107.8,74.8
0.071875,717.1,67.2,1096.7,114.8,2660.1,108.3,722.9,1104.3,2641.1,107.7,74.8
0.073875,727.0,80.9,1104.0,123.2,2636.1,122.6,720.5,1101.3,2637.4,107.7,74.7
0.075875,739.0,101.3,1113.1,134.3,2612.6,141.8,718.6,1098.1,2635,107.7,74.6
0.077875,743.6,108.4,1115.5,137.1,2606.1,149.4,717.3,1095,2634.1,107.6,74.6
0.079875,739.3,97.1,1111.7,130.2,2616.0,142.1,716.4,1092.3,2635.2,107.6,74.8
0.081875,729.4,79.8,1104.0,118.7,2636.4,121.3,716.1,1090,2638.5,107.5,75
0.083875,719.6,68.7,1097.1,108.3,2655.8,97.4,716.2,1088.4,2644.2,107.5,75.2
0.085875,712.6,63.6,1092.1,99.0,2668.2,80.3,716.5,1087.4,2652.4,107.4,75.3
0.087875,709.6,63.6,1088.5,92.3,2674.1,74.4,716.9,1087.3,2663,107.4,75.1
0.089875,710.3,71.7,1088.0,92.2,2677.6,79.5,717.1,1087.8,2675.9,107.4,74.7
0.091875,715.1,96.1,1092.8,103.6,2681.8,97.9,716.9,1089,2690.7,107.3,74.2
0.093875,721.4,140.3,1096.7,120.5,2690.6,123.9,716.2,1090.7,2707,107.3,73.6
0.095875,721.5,174.2,1093.9,128.3,2706.8,147.9,714.7,1092.7,2724.2,107.3,73.2
0.097875,712.5,155.4,1089.4,126.5,2732.4,174.3,712.4,1094.9,2741.6,107.2,73
0.099875,701.9,114.0,1087.1,133.7,2775.8,199.5,709.1,1096.9,2758.5,107.2,73
0.101875,694.7,85.0,1088.9,156.3,2815.3,196.6,704.8,1098.6,2773.9,0,73.1
0.103875,689.5,67.6,1091.3,178.7,2829.4,181.0,699.5,1099.6,2787.1,0,73.1
0.105875,684.9,58.0,1089.7,179.4,2824.4,168.7,693.3,1099.7,2797.3,0,72.8
0.107875,680.5,54.9,1085.9,156.3,2814.4,165.5,686.2,1098.6,2803.6,0,72.4
0.109875,674.3,59.2,1084.4,127.0,2808.4,186.3,678.4,1096.1,2805.5,0,71.8
0.111875,664.0,72.8,1083.6,111.9,2814.4,265.9,670.2,1092.2,2802.5,0,71.2
0.113875,652.0,85.1,1078.2,114.0,2781.6,747.2,661.6,1086.7,2794.3,0,71
0.115875,647.5,82.9,1069.9,135.7,2604.5,822.6,652.9,1079.5,2780.9,0,71.1
0.117875,647.0,76.7,1066.0,173.5,2586.8,876.4,644.2,1070.9,2762.3,0,71.6
0.119875,645.4,70.8,1068.9,208.9,2682.0,883.9,635.9,1060.8,2738.9,0,72
0.121875,641.1,65.0,1068.6,212.2,2759.0,781.3,627.9,1049.6,2711.4,0,72.3
0.123875,634.6,59.7,1058.8,182.0,2772.7,714.2,620.5,1037.5,2680.6,0,72.3
0.125875,627.8,57.9,1045.7,142.8,2783.6,726.5,613.7,1024.7,2647.4,0,72
0.127875,619.1,62.2,1033.6,112.9,2800.4,854.5,607.6,1011.8,2613,0,71.6
0.129875,610.0,75.0,1023.4,106.2,2712.8,934.4,602.4,999.1,2578.7,0,71.1
0.131875,603.4,95.0,1007.8,120.4,2512.1,640.1,597.9,987,2545.6,0,70.7
0.133875,601.3,117.8,984.0,146.1,2412.6,332.3,594.1,976,2515.1,0,70.5
0.135875,599.9,140.8,961.1,178.2,2398.5,200.5,591.1,966.4,2488.3,0,70.2
0.137875,593.6,156.7,944.4,208.3,2409.4,135.8,588.9,958.5,2466.3,0,69.9
0.139875,581.7,158.3,936.8,224.9,2424.8,97.3,587.3,952.6,2449.9,0,69.5
0.141875,566.8,154.6,931.4,232.6,2440.1,68.8,586.3,949.1,2439.8,0,68.7
0.143875,553.6,165.6,917.5,243.3,2454.6,47.7,586,947.8,2436.4,0,67.7
