time,f1,b1,f2,b2,f3,b3,f1p,f2p,f3p,f0,intensity
0.025007,404.5,241.8,989.1,104.1,2327.1,70.5,476.3,1001.5,2351.8,0,75.9
0.027007,439.0,216.5,990.3,96.2,2329.3,70.1,482,1006.2,2360.4,0,76.5
0.029007,476.8,196.8,997.6,102.7,2338.0,81.1,491.2,1013.9,2374,0,77
0.031007,514.2,181.2,1015.1,125.2,2357.8,115.9,503.6,1024.2,2392.1,0,77.4
0.033007,542.9,160.8,1039.3,145.5,2396.5,173.2,518.7,1036.9,2413.7,0,77.7
0.035007,562.4,139.0,1060.8,147.7,2452.4,224.6,536.1,1051.4,2437.5,0,77.9
0.037007,579.0,125.8,1076.8,144.1,2508.1,244.2,555,1067.2,2462.4,0,77.9
0.039007,600.8,125.8,1095.0,153.6,2557.2,240.1,575,1083.9,2487.1,0,77.8
0.041007,627.2,133.5,1117.9,176.6,2588.4,225.4,595.2,1100.8,2510.3,0,77.6
0.043007,648.3,136.6,1138.6,190.4,2597.9,209.9,615.2,1117.4,2531,0,77.4
0.045007,658.8,139.9,1150.5,191.2,2589.2,209.4,634.2,1133.3,2548.2,0,77.5
0.047007,665.9,152.8,1159.3,195.9,2561.7,241.8,651.8,1148,2561.4,0,77.7
0.049007,672.2,164.2,1167.0,199.1,2523.6,294.2,667.5,1161.3,2570,0,78
0.051007,675.0,156.8,1173.5,184.9,2498.6,320.6,681,1172.8,2574.2,0,78.4
0.053007,675.1,133.7,1177.4,155.9,2500.4,311.3,692.2,1182.4,2574,0,78.6
0.055007,675.7,107.6,1178.1,125.1,2520.8,284.5,700.9,1190,2570.1,0,78.8
0.057007,679.4,84.8,1176.9,98.2,2546.1,253.2,707.2,1195.7,2563.2,0,78.9
0.059007,686.4,71.7,1177.2,80.7,2562.9,236.7,711.2,1199.7,2554.4,0,78.9
0.061007,694.7,65.5,1181.3,70.1,2570.1,234.1,713.2,1202.1,2544.6,0,78.9
0.063007,703.2,62.7,1189.9,64.8,2564.3,241.8,713.4,1203.2,2535.2,118.2,79
0.065007,710.2,63.4,1201.1,65.4,2540.5,262.0,712.3,1203.2,2527.2,118.3,79.1
0.067007,713.4,65.5,1211.0,68.6,2510.2,277.4,710.3,1202.6,2521.8,118.4,79.2
0.069007,712.0,65.1,1214.5,69.3,2500.2,278.1,707.6,1201.6,2519.8,118.5,79.4
0.071007,708.6,61.3,1211.3,65.5,2513.2,269.9,704.9,1200.6,2521.8,118.6,79.4
0.073007,704.6,56.1,1204.0,58.1,2537.8,257.9,702.4,1199.7,2528.3,118.7,79.4
0.075007,699.9,51.4,1196.8,48.0,2564.8,252.0,700.4,1199.3,2539.4,118.8,79.3
0.077007,696.7,48.6,1195.9,39.0,2587.8,255.4,699.3,1199.5,2554.8,119,79.1
0.079007,697.3,47.4,1200.3,33.5,2607.4,247.6,699.1,1200.5,2573.9,119.1,78.8
0.081007,702.7,49.2,1206.4,32.4,2623.0,233.8,699.9,1202.2,2595.9,119.3,78.4
0.083007,712.9,56.8,1212.7,38.0,2634.0,228.2,701.8,1204.7,2619.8,119.4,77.9
0.085007,726.7,70.4,1219.8,54.5,2645.7,209.9,704.6,1207.9,2644.2,119.6,77.4
0.087007,736.4,82.8,1226.4,80.0,2655.7,161.2,708.3,1211.7,2667.9,119.7,76.9
0.089007,736.6,90.5,1227.6,98.0,2664.3,121.0,712.5,1216,2689.4,119.9,76.5
0.091007,728.8,97.3,1221.7,89.9,2672.6,104.9,717.1,1220.7,2707.4,120,76.3
0.093007,720.3,102.1,1218.4,71.4,2678.1,102.3,721.7,1225.7,2720.8,120.2,76.3
0.095007,715.3,100.0,1219.7,58.1,2683.4,103.1,726,1230.7,2728.4,120.4,76.3
0.097007,714.5,93.2,1223.3,51.9,2691.2,106.5,729.8,1235.8,2729.7,120.5,76.2
0.099007,716.7,89.7,1228.1,53.2,2702.4,116.5,732.8,1240.8,2724.1,120.6,76
0.101007,720.1,94.8,1234.5,66.0,2717.0,137.7,734.8,1245.8,2711.6,120.8,75.6
0.103007,721.0,105.7,1242.7,92.3,2730.0,169.5,735.5,1250.7,2692.5,120.9,75.2
0.105007,717.8,115.7,1253.4,120.0,2732.0,219.1,734.8,1255.6,2667.3,121.1,74.9
0.107007,715.6,127.0,1262.8,120.8,2703.5,306.8,732.7,1260.6,2636.9,0,74.9
0.109007,719.0,142.9,1270.0,105.9,2635.5,421.3,729.2,1265.9,2602.6,0,75.2
0.111007,723.5,150.5,1277.2,92.6,2569.3,461.7,724.3,1271.6,2565.5,0,75.6
0.113007,724.2,144.3,1284.8,81.1,2525.7,437.4,718.1,1277.7,2527.2,0,75.9
0.115007,722.4,132.1,1292.0,72.4,2487.3,378.1,710.8,1284.6,2489,0,76
0.117007,719.7,121.7,1297.9,68.1,2438.3,293.1,702.6,1292.3,2452.4,0,75.8
0.119007,713.2,115.6,1301.8,69.0,2383.7,199.1,693.7,1300.8,2418.7,0,75.4
0.121007,698.0,110.5,1302.9,74.0,2343.5,130.3,684.3,1310.3,2389,0,74.8
0.123007,673.9,102.2,1307.7,82.0,2323.0,95.3,674.7,1320.8,2364,0,74.3
0.125007,654.4,90.1,1333.3,83.4,2321.2,96.3,665.1,1332,2344.3,0,74.1
0.127007,646.3,77.8,1365.4,66.6,2334.3,123.0,655.7,1344,2330.2,0,74.3
0.129007,644.0,68.2,1378.2,49.6,2349.2,145.0,646.6,1356.5,2321.4,0,74.7
0.131007,640.9,61.6,1380.5,40.0,2353.5,140.1,638.1,1369.2,2317.8,0,75.1
0.133007,636.1,58.0,1380.5,34.6,2350.7,122.9,630.3,1381.9,2318.5,0,75.3
0.135007,631.4,58.3,1380.8,33.1,2342.9,108.5,623.3,1394.3,2322.7,0,75.3
0.137007,628.1,61.4,1382.7,36.2,2329.7,101.1,617.2,1405.9,2329.5,0,75
0.139007,625.3,64.0,1387.9,44.4,2317.0,98.9,611.9,1416.4,2337.6,0,74.6
0.141007,619.8,64.6,1399.5,56.8,2316.1,97.1,607.6,1425.6,2346.1,0,74.1
0.143007,611.0,68.5,1421.0,68.9,2335.9,93.7,604.3,1433.1,2353.9,0,73.6
0.145007,599.5,84.0,1448.2,75.9,2362.0,91.3,601.9,1438.6,2360.2,0,73.2
0.147007,584.0,113.5,1466.1,75.0,2375.8,93.3,600.5,1442,2364.2,0,72.8
0.149007,565.5,145.9,1472.1,70.4,2379.1,92.9,600,1443.1,2365.6,0,72.6
