time,f1,b1,f2,b2,f3,b3,f1p,f2p,f3p,f0,intensity
0.025204,468.7,209.3,1742.3,198.5,2641.2,311.3,474,1764.6,2617,0,64.2
0.027204,479.7,202.9,1745.1,228.3,2605.0,249.9,478.7,1763.1,2613.3,0,64.6
0.029204,492.0,210.4,1749.8,285.0,2591.5,211.3,486.4,1760.5,2607.4,0,65.1
0.031204,506.4,217.8,1752.2,319.5,2581.0,183.1,496.6,1756.7,2599.6,0,65.5
0.033204,519.5,214.2,1750.6,304.3,2572.5,157.4,508.8,1751.5,2590.3,0,65.6
0.035204,528.2,202.2,1747.5,268.1,2570.1,135.8,522.4,1744.8,2579.9,0,65.4
0.037204,533.6,190.7,1745.3,225.1,2573.4,118.0,536.8,1736.5,2568.9,0,64.8
0.039204,539.8,188.9,1742.4,178.6,2574.8,110.8,551.5,1726.3,2557.8,0,64
0.041204,549.9,200.7,1737.4,153.5,2566.2,131.4,565.7,1714.4,2547.1,0,63
0.043204,563.8,214.0,1727.6,160.8,2545.8,179.2,579.2,1700.6,2537.2,0,62.2
0.045204,575.8,210.7,1709.8,192.0,2527.0,223.8,591.3,1685.1,2528.3,0,61.8
0.047204,594.6,189.3,1683.0,247.2,2515.6,258.1,602,1668.1,2520.7,0,61.9
0.049204,619.1,155.8,1650.2,321.1,2510.4,278.7,611.2,1649.8,2514.4,0,62.3
0.051204,635.9,129.4,1621.0,365.7,2513.6,281.3,618.9,1630.5,2509.5,0,62.7
0.053204,643.3,115.4,1604.5,342.3,2526.9,272.9,625.3,1610.7,2505.9,0,63
0.055204,646.1,110.0,1592.5,284.7,2542.8,262.9,630.8,1590.9,2503.4,0,63
0.057204,646.5,113.0,1572.6,229.9,2546.2,250.6,635.8,1571.4,2501.7,0,62.8
0.059204,644.8,129.4,1537.7,178.6,2516.7,216.6,640.8,1552.7,2500.6,0,62.4
0.061204,639.9,162.7,1499.4,116.8,2470.6,154.3,646.3,1535.2,2499.7,0,62
0.063204,637.1,184.8,1482.1,70.2,2443.7,113.4,652.8,1519.3,2499,0,61.7
0.065204,645.7,183.8,1478.5,45.6,2433.6,101.8,660.6,1505.3,2498.2,0,61.8
0.067204,666.1,178.5,1479.2,35.1,2439.6,110.1,670.1,1493.2,2497.1,0,62
0.069204,690.5,180.6,1481.3,32.5,2464.8,121.9,681.5,1483.2,2495.9,0,62.3
0.071204,708.2,193.7,1484.3,34.4,2496.5,112.9,694.8,1475.2,2494.5,0,62.6
0.073204,717.0,216.6,1487.1,38.1,2513.3,92.7,709.9,1468.9,2493.1,0,62.6
0.075204,719.5,243.0,1487.6,42.4,2517.9,81.9,726.6,1464.2,2492,0,62.4
0.077204,719.2,268.5,1485.0,47.2,2519.0,82.5,744.5,1460.6,2491.5,0,62
0.079204,728.0,287.6,1481.2,55.1,2520.7,92.8,763.1,1457.9,2491.8,0,61.3
0.081204,763.2,287.6,1478.1,79.2,2526.7,113.3,781.9,1455.5,2493.3,0,60.5
0.083204,810.0,273.6,1476.0,147.7,2532.9,136.8,800.3,1453.2,2496.3,0,59.8
0.085204,853.1,281.6,1470.7,302.6,2529.6,154.1,817.6,1450.6,2500.9,0,59.4
0.087204,883.9,294.4,1453.3,474.6,2519.0,167.8,833.5,1447.4,2507.4,0,59.3
0.089204,878.6,282.8,1423.7,476.6,2510.3,186.0,847.3,1443.5,2515.7,0,59.5
0.091204,860.4,232.1,1411.7,365.1,2510.1,219.8,858.7,1438.8,2525.6,0,59.8
0.093204,854.1,181.4,1410.1,264.7,2518.1,255.6,867.6,1433.3,2537.1,0,60.1
0.095204,853.5,155.7,1407.5,199.2,2526.2,261.0,873.7,1427.2,2549.6,0,60.2
0.097204,854.1,151.4,1403.3,158.0,2535.5,251.5,877,1420.8,2562.8,0,60.3
0.099204,856.0,161.0,1398.3,128.7,2554.0,252.0,877.9,1414.3,2576.2,0,60.2
0.101204,861.0,174.1,1394.2,102.8,2580.4,260.9,876.4,1408.2,2589.1,0,60.1
0.103204,868.0,178.3,1394.7,82.2,2597.3,265.7,873.1,1402.7,2601,0,60
0.105204,871.5,177.0,1399.0,68.8,2600.9,267.9,868.2,1398.4,2611.5,0,59.9
0.107204,867.7,180.0,1404.2,63.5,2598.2,273.7,862.4,1395.5,2619.9,0,59.6
0.109204,859.7,190.5,1408.4,66.1,2599.1,282.3,855.9,1394.3,2626,0,59.4
0.111204,855.3,209.1,1410.4,78.1,2612.9,282.6,849.3,1394.9,2629.5,0,59
0.113204,858.6,237.8,1409.3,98.2,2637.1,265.2,843,1397.4,2630.4,0,58.7
0.115204,862.8,274.7,1408.3,114.0,2655.9,245.1,837.2,1401.7,2628.8,0,58.3
0.117204,859.9,305.2,1413.1,115.3,2664.0,239.7,832.1,1407.5,2624.8,0,58.1
0.119204,840.7,309.9,1422.2,107.1,2664.9,267.8,827.8,1414.6,2619,0,57.8
0.121204,806.5,278.5,1432.9,99.1,2661.1,334.0,824.5,1422.6,2611.7,0,57.5
0.123204,781.9,218.7,1447.1,93.1,2647.1,385.8,822,1431,2603.6,0,57.2
0.125204,783.2,165.5,1459.5,87.1,2626.8,373.4,820.3,1439.3,2595.3,0,56.7
0.127204,799.8,137.8,1462.1,80.1,2607.4,335.5,819.1,1446.9,2587.5,0,56.1
0.129204,817.7,131.9,1455.4,73.3,2583.9,301.5,818.5,1453.4,2580.7,0,55.5
0.131204,829.7,137.2,1444.7,70.0,2550.5,268.9,818.1,1458.3,2575.4,0,54.8
0.133204,835.1,134.9,1434.5,73.2,2514.6,228.1,818,1461.4,2572.1,0,54.1
0.135204,840.7,114.2,1426.6,86.7,2492.9,189.8,817.9,1462.5,2571,0,53.6
