time,f1,b1,f2,b2,f3,b3,f1p,f2p,f3p,f0,intensity
0.025281,413.9,162.9,1490.4,76.5,2443.6,147.9,416.5,1506.5,2455,197.8,72
0.027281,411.8,162.9,1515.8,81.6,2445.5,131.5,418.2,1512,2452.7,198.9,72.2
0.029281,412.0,159.6,1531.1,87.6,2447.0,118.2,421,1521,2449.2,200,72.5
0.031281,417.7,150.7,1539.0,98.9,2448.6,113.8,424.8,1533,2444.4,201.3,72.8
0.033281,428.0,137.4,1544.7,119.5,2448.2,116.0,429.2,1547.7,2438.6,202.6,73.1
0.035281,438.7,126.5,1552.5,150.3,2444.2,119.9,434.2,1564.5,2432.1,203.9,73.4
0.037281,448.5,120.4,1566.6,189.8,2438.3,125.9,439.3,1582.9,2425.1,205.4,73.7
0.039281,457.0,117.5,1593.9,223.2,2430.6,139.1,444.5,1602.2,2418,206.8,74
0.041281,462.3,115.1,1628.7,225.9,2420.8,156.6,449.4,1621.7,2411,208.4,74.3
0.043281,464.0,113.9,1658.4,204.7,2407.2,170.6,453.9,1640.9,2404.4,209.9,74.5
0.045281,462.4,116.3,1673.9,182.8,2390.7,178.3,457.7,1659.2,2398.3,211.5,74.7
0.047281,459.3,121.9,1681.0,168.8,2371.2,188.8,460.7,1676.1,2393,213.1,75
0.049281,456.3,128.0,1688.5,161.5,2352.2,212.9,462.9,1691.2,2388.5,214.8,75.2
0.051281,454.8,128.7,1701.3,155.9,2343.7,250.3,464.3,1704.3,2385,216.5,75.4
0.053281,454.9,120.8,1717.9,147.8,2352.0,292.7,464.9,1715.1,2382.3,218.1,75.7
0.055281,456.5,107.8,1734.3,141.1,2379.8,328.3,464.7,1723.7,2380.5,219.8,76
0.057281,458.9,97.3,1746.2,143.7,2417.0,338.8,464.1,1730,2379.3,221.5,76.3
0.059281,461.5,89.6,1751.0,161.8,2440.3,321.4,463.1,1734.3,2378.7,223.2,76.5
0.061281,463.2,82.2,1743.6,201.0,2429.9,313.7,462.1,1736.7,2378.4,224.9,76.7
0.063281,463.8,73.5,1724.4,256.8,2399.3,316.0,461.1,1737.7,2378.3,226.6,76.8
0.065281,464.1,63.6,1706.7,304.4,2373.2,315.7,460.5,1737.6,2378.1,228.2,76.9
0.067281,464.3,53.7,1706.6,324.8,2362.3,327.9,460.4,1736.7,2377.6,229.9,77
0.069281,464.5,44.7,1718.6,338.1,2358.3,352.4,461.1,1735.4,2376.7,231.5,77
0.071281,465.1,37.3,1735.7,371.1,2356.4,377.9,462.5,1734.2,2375.3,233.1,77
0.073281,466.3,31.5,1747.8,426.2,2352.9,376.1,464.8,1733.2,2373.3,234.6,76.9
0.075281,468.5,26.2,1741.1,477.7,2347.6,327.0,468.1,1732.8,2370.7,236.2,76.7
0.077281,471.9,21.4,1722.6,470.8,2350.5,258.8,472.1,1733,2367.6,237.6,76.4
0.079281,476.4,18.5,1722.4,399.8,2358.4,217.4,476.9,1734,2364,239.1,76.1
0.081281,482.2,18.0,1738.4,315.2,2364.6,199.2,482.2,1735.7,2360.3,240.5,75.7
0.083281,488.1,19.4,1750.1,257.6,2366.2,193.1,487.8,1738,2356.4,241.8,75.3
0.085281,493.6,21.4,1752.9,221.5,2363.2,191.8,493.6,1740.7,2352.7,243.1,74.9
0.087281,498.6,22.9,1748.6,200.5,2356.6,190.5,499.3,1743.5,2349.4,244.4,74.6
0.089281,503.2,23.4,1741.5,192.5,2351.7,180.3,504.7,1746.2,2346.8,245.6,74.3
0.091281,507.9,23.5,1736.6,191.6,2352.9,157.7,509.5,1748.3,2344.9,246.7,74
0.093281,512.7,23.5,1740.0,192.1,2357.5,133.4,513.5,1749.5,2344.1,247.8,73.7
0.095281,516.1,23.1,1751.1,191.5,2361.0,119.4,516.7,1749.4,2344.5,248.8,73.4
0.097281,517.6,22.2,1766.3,197.0,2362.0,116.1,519,1747.7,2346.1,249.8,73
0.099281,518.1,22.2,1781.8,222.9,2359.7,123.4,520.3,1744,2349,250.7,72.6
0.101281,519.1,24.7,1791.2,280.0,2352.1,133.2,520.8,1738.1,2353.1,251.6,72.2
0.103281,521.4,30.4,1770.8,340.4,2341.3,125.1,520.4,1729.9,2358.3,252.4,71.8
0.105281,522.6,36.3,1720.7,328.6,2337.2,103.8,519.5,1719.2,2364.4,253.1,71.4
0.107281,520.9,38.6,1674.9,268.2,2340.2,90.8,518.1,1706,2371.2,253.8,71.2
0.109281,517.8,36.6,1641.1,208.3,2350.5,93.2,516.6,1690.4,2378.5,254.4,71.1
0.111281,516.8,32.7,1619.2,166.0,2370.4,111.4,515.2,1672.6,2386,255,71
0.113281,517.3,28.8,1606.7,134.2,2398.4,136.3,514.1,1652.7,2393.4,255.5,70.9
0.115281,517.0,25.7,1599.2,109.0,2421.1,148.1,513.6,1631.1,2400.5,256,70.6
0.117281,515.0,25.2,1589.0,90.2,2428.7,140.7,513.9,1608.1,2406.9,256.5,70.2
0.119281,511.8,29.2,1570.3,73.5,2430.7,127.2,515.1,1584.2,2412.5,256.9,69.5
0.121281,509.3,39.5,1551.2,60.6,2434.0,121.2,517.4,1559.6,2417.1,257.4,68.5
0.123281,509.7,57.9,1538.1,52.8,2437.2,125.6,520.7,1534.9,2420.7,257.7,67.3
0.125281,516.8,83.8,1531.1,51.9,2435.6,135.2,525,1510.4,2423.1,258.1,66
0.127281,531.0,109.8,1526.9,59.8,2427.8,133.8,530.3,1486.6,2424.4,258.4,64.5
0.129281,547.5,138.3,1520.3,81.7,2416.7,115.0,536.3,1463.8,2424.7,258.8,63
0.131281,559.3,183.5,1503.1,125.0,2406.8,92.3,542.7,1442.5,2424.2,259.1,61.7
0.133281,561.0,243.9,1473.7,168.7,2400.6,76.6,549.5,1423,2422.9,259.4,60.6
0.135281,554.7,294.6,1440.8,183.4,2398.5,65.1,556.1,1405.4,2421.2,259.7,59.8
0.137281,550.9,301.2,1414.2,171.0,2400.9,58.0,562.5,1390.2,2419.3,259.9,59.1
0.139281,556.2,284.6,1387.2,152.7,2406.5,54.9,568.1,1377.5,2417.3,260.2,58.5
0.141281,569.4,276.0,1354.0,139.5,2414.1,56.1,572.8,1367.4,2415.5,260.5,58.1
0.143281,581.3,273.6,1321.2,129.8,2421.9,58.7,576.3,1360.1,2414.1,260.7,57.8
0.145281,583.6,256.2,1297.5,116.8,2430.2,58.9,578.5,1355.7,2413.2,260.9,57.5
0.147281,577.6,226.3,1289.9,106.3,2438.9,59.1,579.3,1354.3,2412.8,261.2,57.1
