time,f1,b1,f2,b2,f3,b3,f1p,f2p,f3p,f0,intensity
0.025984,420.1,215.4,1266.0,76.4,2377.4,265.8,427.4,1253.7,2360.4,140.7,67.3
0.027984,424.6,178.7,1259.2,67.2,2370.2,258.8,427.7,1251.6,2366.2,140.8,67.6
0.029984,426.9,155.7,1250.2,62.2,2370.2,250.0,428.1,1248,2375.6,141,67.8
0.031984,429.6,142.2,1242.5,60.6,2384.9,240.2,428.7,1243.1,2388.5,141.2,67.9
0.033984,433.0,131.2,1237.1,62.5,2419.4,226.5,429.3,1236.8,2404.3,141.3,67.9
0.035984,434.9,121.5,1233.6,69.8,2457.5,205.6,430,1229.2,2422.5,141.5,67.9
0.037984,435.4,113.1,1228.4,84.2,2485.0,183.7,430.7,1220.4,2442.6,141.7,67.8
0.039984,435.2,106.8,1218.5,101.1,2497.7,171.9,431.2,1210.4,2464.1,141.9,67.7
0.041984,433.7,101.7,1202.1,115.2,2503.2,168.8,431.6,1199.3,2486.1,142.1,67.6
0.043984,430.6,97.3,1179.7,123.5,2504.9,172.2,431.7,1187.3,2508.1,142.3,67.5
0.045984,428.5,94.5,1158.9,126.8,2503.8,180.7,431.5,1174.4,2529.4,142.5,67.3
0.047984,427.9,95.1,1143.0,133.6,2500.5,197.0,431,1160.9,2549.5,142.7,67.2
0.049984,427.6,99.9,1132.8,151.8,2497.2,225.9,430.1,1147,2567.8,142.9,67.1
0.051984,426.3,108.1,1125.3,183.4,2503.0,269.7,428.6,1132.8,2583.8,143.1,66.9
0.053984,424.9,116.0,1120.8,213.2,2532.0,307.9,426.7,1118.5,2597.1,143.3,66.7
0.055984,423.4,122.2,1116.1,230.2,2585.5,305.3,424.3,1104.5,2607.5,143.4,66.5
0.057984,420.6,127.5,1105.0,237.4,2627.0,243.9,421.3,1091.1,2614.9,143.6,66.3
0.059984,416.6,135.3,1088.0,252.1,2634.2,201.0,417.8,1078.4,2619.1,143.8,66.1
0.061984,412.8,152.1,1069.3,300.3,2628.1,192.2,413.8,1066.8,2620.3,144,65.9
0.063984,410.9,176.3,1052.9,401.4,2618.2,206.2,409.3,1056.5,2618.6,144.2,65.7
0.065984,410.0,198.2,1034.3,554.5,2609.3,225.5,404.4,1047.9,2614.4,144.4,65.5
0.067984,407.6,212.1,1008.6,695.6,2605.2,233.6,399.1,1041.1,2607.9,144.5,65.4
0.069984,401.4,222.3,986.2,735.4,2608.1,234.7,393.5,1036.5,2599.6,144.7,65.3
0.071984,391.5,226.6,981.4,715.8,2619.7,244.6,387.7,1034.2,2590,144.9,65.2
0.073984,382.0,217.9,1001.8,701.6,2637.8,264.8,381.8,1034.3,2579.7,145,65.2
0.075984,373.6,200.0,1043.2,703.9,2656.9,301.8,375.8,1037,2569,145.2,65.2
0.077984,366.8,183.0,1085.7,724.9,2662.0,363.3,369.8,1042.3,2558.6,145.3,65.2
0.079984,360.1,167.8,1115.7,771.1,2636.9,421.4,364,1050.3,2548.9,145.5,65.2
0.081984,352.6,151.4,1129.2,828.3,2589.5,415.7,358.4,1060.9,2540.4,145.7,65.2
0.083984,345.5,137.0,1130.8,871.6,2556.0,385.1,353.1,1073.9,2533.4,145.8,65.2
0.085984,339.4,127.1,1125.1,909.7,2533.3,399.3,348.1,1089.3,2528.2,146,65.2
0.087984,336.3,125.6,1120.6,989.3,2508.0,498.4,343.5,1106.7,2525,146.1,65.1
0.089984,337.4,132.8,1124.6,1186.1,2456.9,705.9,339.5,1126,2523.9,146.3,65.1
0.091984,340.6,141.2,1135.1,1538.0,2358.0,955.1,335.9,1146.7,2525,146.4,65
0.093984,340.2,138.0,1145.7,1738.9,2297.1,1037.2,332.8,1168.6,2528.1,146.5,64.9
0.095984,335.5,125.1,1204.5,1530.4,2378.2,1030.5,330.3,1191.3,2533.1,146.7,64.8
0.097984,330.5,112.5,1234.3,1133.8,2520.7,868.3,328.3,1214.3,2539.6,146.8,64.7
0.099984,326.5,104.0,1229.3,813.4,2585.5,650.0,326.8,1237.2,2547.5,147,64.6
0.101984,324.9,103.1,1220.5,637.5,2598.9,549.1,325.8,1259.7,2556.3,147.1,64.4
0.103984,325.7,110.4,1216.9,557.2,2604.0,534.6,325.2,1281.4,2565.6,147.2,64.2
0.105984,327.9,123.2,1229.9,544.3,2620.4,559.9,325.1,1301.9,2574.9,147.3,63.9
0.107984,328.9,131.7,1266.2,564.5,2650.8,565.0,325.3,1320.8,2583.8,147.4,63.6
0.109984,328.2,130.3,1313.7,571.9,2674.6,553.1,325.7,1337.9,2591.9,147.5,63.2
0.111984,326.9,124.2,1347.5,555.9,2679.8,582.6,326.4,1353,2598.7,147.6,62.9
0.113984,326.6,122.0,1376.9,543.1,2673.7,706.1,327.3,1365.9,2604,147.7,62.6
0.115984,328.4,125.9,1409.0,552.4,2651.0,939.5,328.3,1376.5,2607.5,147.8,62.3
0.117984,331.6,131.3,1430.8,573.6,2584.5,1160.2,329.2,1384.6,2608.9,147.9,62.2
0.119984,333.7,132.0,1426.5,584.6,2550.3,1122.5,330.2,1390.4,2608,147.9,62.1
0.121984,333.4,127.1,1411.6,579.7,2594.5,913.8,331.1,1393.9,2604.9,148,62.1
0.123984,332.6,120.3,1400.3,586.1,2631.7,706.5,331.9,1395.3,2599.6,148,62.2
0.125984,331.8,114.9,1394.0,620.7,2635.9,604.0,332.5,1394.7,2592.1,148.1,62.3
0.127984,330.2,110.4,1385.0,676.9,2609.7,582.5,332.9,1392.3,2582.7,148.1,62.4
0.129984,328.8,106.1,1357.7,731.9,2548.9,609.6,333.1,1388.4,2571.6,148.1,62.5
0.131984,328.1,102.3,1323.5,757.1,2474.9,630.4,333.1,1383.4,2559,148.1,62.6
0.133984,327.2,97.3,1317.2,775.4,2423.4,661.0,332.8,1377.4,2545.4,148.1,62.7
0.135984,326.7,91.3,1352.2,810.9,2410.8,753.5,332.3,1370.8,2531.1,148.1,62.8
0.137984,327.2,86.2,1413.9,857.9,2442.9,913.6,331.6,1364,2516.4,148.1,62.9
0.139984,326.9,84.7,1469.5,885.0,2534.2,997.0,330.7,1357.1,2501.7,148,62.9
0.141984,325.0,85.5,1495.6,884.6,2590.5,815.2,329.5,1350.4,2487.5,148,62.9
0.143984,323.9,88.1,1492.7,892.5,2559.1,598.4,328.2,1344.2,2473.9,148,62.9
0.145984,325.3,91.7,1467.5,979.0,2516.4,502.8,326.8,1338.7,2461.3,147.9,62.9
0.147984,327.8,96.5,1401.0,1211.9,2465.2,496.6,325.3,1334,2450,147.9,62.8
0.149984,331.7,103.8,1287.9,1523.9,2408.9,488.9,323.7,1330.1,2439.9,147.8,62.7
0.151984,335.9,112.0,1156.6,1689.6,2376.0,447.5,322,1327.2,2431.4,147.8,62.7
0.153984,334.5,112.7,1139.2,1483.2,2385.4,410.9,320.4,1325.2,2424.3,147.7,62.6
0.155984,327.3,103.4,1189.8,1117.8,2418.3,366.5,318.7,1324.1,2418.8,147.7,62.5
0.157984,319.6,90.4,1229.1,832.7,2446.7,306.1,317.1,1323.8,2414.6,147.6,62.4
0.159984,315.0,83.5,1247.4,720.1,2457.7,264.7,315.6,1324.2,2411.7,147.6,62.3
0.161984,312.2,83.9,1261.8,751.9,2458.9,251.5,314.2,1325.2,2410,147.5,62.1
0.163984,311.0,86.6,1282.1,879.8,2451.7,251.6,312.9,1326.6,2409.1,147.5,62
0.165984,309.8,85.8,1305.9,1012.6,2434.7,243.5,311.7,1328.3,2408.9,147.4,62
0.167984,307.8,81.5,1324.0,1072.6,2411.2,230.7,310.7,1330,2409.3,147.4,62
0.169984,306.3,78.1,1347.0,1079.4,2391.4,230.5,309.8,1331.7,2409.9,147.3,62
0.171984,306.2,76.7,1381.2,1044.5,2378.8,238.7,309.2,1333.1,2410.5,147.3,62.1
0.173984,306.6,78.0,1408.3,983.2,2377.6,248.4,308.7,1334.3,2411.2,147.3,62.2
0.175984,306.6,81.0,1431.6,943.7,2386.2,263.2,308.4,1335,2411.6,147.2,62.2
0.177984,306.0,81.3,1463.2,945.1,2399.6,277.7,308.3,1335.2,2411.7,147.2,62.3
