time,f1,b1,f2,b2,f3,b3,f1p,f2p,f3p,f0,intensity
0.026000,328.7,98.8,1843.9,79.1,2515.6,106.7,322.7,1906.7,2514.8,156.3,71.7
0.028000,324.8,69.1,1851.8,96.9,2510.3,98.2,322.7,1913,2511.2,156.5,72.4
0.030000,323.2,55.9,1878.1,142.7,2495.4,95.5,322.6,1923.1,2505.4,156.6,72.9
0.032000,322.6,51.6,1929.3,205.9,2474.9,97.3,322.6,1936.8,2497.8,156.7,73.3
0.034000,322.0,50.2,1979.6,254.2,2459.6,101.8,322.6,1953.5,2488.8,156.9,73.6
0.036000,321.3,49.5,2017.8,293.6,2454.2,109.4,322.6,1972.6,2478.8,157,73.8
0.038000,320.9,48.8,2048.4,333.8,2462.8,121.1,322.7,1993.5,2468.4,157.2,74
0.040000,320.8,47.8,2069.6,390.3,2479.3,129.0,322.9,2015.5,2458.2,157.4,74.1
0.042000,320.7,47.2,2076.4,489.9,2490.2,127.3,323.3,2037.9,2448.6,157.6,74.1
0.044000,321.0,47.9,2081.8,606.1,2491.1,121.1,323.7,2060.1,2440.1,157.8,74.2
0.046000,322.1,50.8,2110.5,655.5,2485.3,121.4,324.4,2081.4,2433.2,158,74.2
0.048000,323.9,55.6,2135.9,595.4,2472.8,135.9,325.2,2101.6,2428,158.2,74.2
0.050000,325.5,59.8,2139.2,560.9,2445.8,168.9,326.2,2120,2424.8,158.4,74.2
0.052000,326.6,61.5,2144.3,639.9,2397.8,211.4,327.4,2136.6,2423.5,158.6,74.1
0.054000,327.7,62.8,2146.6,812.2,2350.8,226.0,328.7,2151.2,2424,158.8,74
0.056000,329.6,65.1,2132.6,838.4,2362.5,231.1,330.1,2163.8,2426.2,158.9,73.9
0.058000,332.1,67.2,2094.6,773.6,2412.8,189.6,331.6,2174.5,2429.6,159.1,73.8
0.060000,334.8,69.6,2071.6,745.8,2440.3,127.4,333.1,2183.5,2433.8,159.2,73.7
0.062000,337.7,72.6,2094.4,689.5,2444.9,96.2,334.6,2191.1,2438.3,159.4,73.7
0.064000,340.6,74.5,2160.2,572.4,2441.1,90.8,336.1,2197.4,2442.5,159.5,73.6
0.066000,342.4,73.3,2225.5,437.9,2438.8,101.5,337.4,2202.8,2446,159.5,73.6
0.068000,343.0,70.1,2261.7,332.0,2441.9,113.9,338.6,2207.5,2448.1,159.6,73.6
0.070000,342.9,65.6,2273.9,275.6,2446.0,115.3,339.4,2211.7,2448.5,159.6,73.5
0.072000,342.0,60.0,2274.6,259.0,2447.1,106.9,340,2215.6,2446.8,159.5,73.5
0.074000,340.0,53.2,2265.8,264.1,2447.4,92.7,340.3,2219.1,2442.7,159.4,73.5
0.076000,337.2,46.0,2247.0,287.1,2448.1,80.0,340.1,2222.2,2436.2,159.3,73.5
0.078000,334.4,39.6,2222.9,329.5,2447.2,75.6,339.6,2224.8,2427.3,159.1,73.5
0.080000,332.2,35.5,2206.6,387.4,2439.8,82.7,338.6,2226.5,2416,158.9,73.5
0.082000,330.7,33.7,2207.4,453.7,2421.7,95.1,337.2,2227,2402.9,158.7,73.5
0.084000,329.8,33.8,2220.0,519.5,2395.2,100.5,335.5,2225.9,2388.2,158.3,73.5
0.086000,329.2,35.3,2234.9,561.6,2371.9,98.5,333.4,2222.8,2372.5,158,73.5
0.088000,328.8,37.8,2244.0,580.0,2353.7,99.7,331,2217.2,2356.3,157.6,73.4
0.090000,328.7,41.4,2246.9,581.0,2337.5,108.1,328.3,2208.7,2340.4,157.1,73.3
0.092000,328.3,46.2,2241.4,598.0,2320.2,117.2,325.5,2196.8,2325.3,156.6,73.2
0.094000,327.1,50.6,2208.5,666.5,2309.7,117.6,322.6,2181.2,2311.7,156.1,73
0.096000,325.0,53.3,2122.8,777.4,2308.7,114.1,319.7,2161.7,2300.2,155.5,72.9
0.098000,322.0,53.6,1993.3,866.3,2307.1,121.0,316.8,2138.2,2291.3,154.9,72.7
0.100000,318.9,51.5,1921.1,886.4,2290.1,161.6,314.1,2110.6,2285.3,154.3,72.5
0.102000,316.1,48.6,1993.6,856.5,2241.8,257.6,311.6,2079.1,2282.7,153.6,72.2
0.104000,313.0,45.0,2152.8,697.1,2160.5,376.2,309.4,2044,2283.5,152.9,72
0.106000,309.4,41.2,2080.5,381.2,2261.1,569.4,307.4,2005.8,2287.6,152.2,71.7
0.108000,306.2,39.2,2034.2,409.8,2297.4,427.5,305.8,1964.9,2295.1,151.5,71.3
0.110000,303.7,39.3,1981.2,438.9,2327.7,307.5,304.5,1922,2305.5,150.7,71
0.112000,301.2,40.3,1918.3,438.4,2355.8,223.7,303.6,1878,2318.6,150,70.7
0.114000,298.9,40.8,1853.8,398.7,2377.4,185.1,303,1833.6,2333.7,149.2,70.3
0.116000,297.7,41.7,1793.3,343.9,2394.3,181.1,302.7,1789.9,2350.4,148.5,70
0.118000,297.3,44.1,1740.2,297.8,2407.7,193.3,302.7,1747.5,2367.8,147.7,69.7
0.120000,297.0,46.7,1690.3,254.5,2415.6,193.1,302.8,1707.6,2385.4,147,69.4
0.122000,296.8,49.4,1652.3,213.4,2414.5,157.6,303.1,1671,2402.3,146.2,69
0.124000,296.9,55.4,1630.6,186.1,2414.3,113.0,303.5,1638.4,2418,145.5,68.7
0.126000,297.8,64.5,1615.0,181.5,2420.2,84.0,303.9,1610.7,2431.8,144.8,68.2
0.128000,300.4,72.7,1591.2,196.9,2428.2,67.2,304.3,1588.4,2443.2,144.1,67.7
0.130000,305.5,83.4,1548.5,222.2,2434.1,53.8,304.6,1572.2,2451.7,143.5,67.1
0.132000,313.4,109.2,1527.7,228.1,2434.4,50.7,304.8,1562.2,2456.9,142.9,66.5
0.134000,326.1,185.1,1580.3,206.7,2429.8,70.1,304.9,1558.9,2458.6,142.3,65.7
