time,f1,b1,f2,b2,f3,b3,f1p,f2p,f3p,f0,intensity
0.025168,287.9,339.1,1060.0,129.6,2413.7,55.9,399.5,1118.8,2395.9,124.9,68.9
0.027168,322.1,332.2,1089.4,113.4,2410.4,54.4,402.5,1125.5,2397,125.2,69.2
0.029168,369.9,305.7,1125.1,100.7,2405.5,59.2,407.5,1136.5,2398.9,125.6,69.5
0.031168,414.9,253.6,1156.3,85.2,2400.6,62.5,414.1,1151.7,2401.3,125.9,69.9
0.033168,443.6,205.0,1176.7,71.2,2398.7,60.4,422.3,1170.7,2404.5,126.3,70.5
0.035168,465.5,174.9,1192.1,65.9,2400.4,57.1,431.6,1193.2,2408.2,126.6,71.1
0.037168,489.5,155.9,1211.7,71.9,2404.2,55.7,441.8,1218.7,2412.3,127,71.7
0.039168,513.4,134.2,1245.1,85.0,2409.2,55.1,452.5,1246.8,2416.9,127.3,72.3
0.041168,528.4,111.3,1292.1,91.5,2414.4,54.6,463.4,1277,2421.9,127.7,72.9
0.043168,535.1,93.6,1349.4,83.0,2419.2,55.4,473.9,1308.9,2427.1,128,73.3
0.045168,533.8,85.5,1403.5,63.3,2423.3,57.9,483.9,1341.8,2432.5,128.4,73.7
0.047168,525.2,87.5,1440.6,44.9,2427.1,60.4,492.9,1375.4,2438,128.7,74
0.049168,513.3,94.7,1460.8,34.1,2432.9,61.6,500.7,1409.1,2443.5,129.1,74.2
0.051168,503.9,99.1,1471.6,29.9,2442.1,62.2,506.9,1442.6,2449.1,129.4,74.4
0.053168,497.2,99.9,1479.5,31.4,2455.2,66.1,511.5,1475.4,2454.6,129.7,74.6
0.055168,491.5,100.7,1488.1,38.2,2468.7,74.2,514.3,1507.3,2460.1,130.1,74.8
0.057168,486.8,100.4,1500.1,48.9,2478.8,83.1,515.2,1537.9,2465.5,130.4,74.9
0.059168,482.5,98.3,1517.2,61.6,2483.3,90.3,514.2,1567.2,2470.9,130.7,75
0.061168,476.8,96.7,1543.3,77.4,2485.1,101.0,511.5,1595,2476.3,131,75.1
0.063168,470.9,95.1,1581.1,95.5,2488.9,121.3,507,1621.2,2481.6,131.2,75.3
0.065168,468.0,93.3,1624.3,110.1,2497.6,146.4,501.1,1645.7,2487.1,131.5,75.4
0.067168,467.9,94.8,1661.1,122.4,2508.7,160.4,493.9,1668.7,2492.7,131.8,75.6
0.069168,467.4,99.1,1698.4,136.3,2519.6,164.9,485.6,1690.2,2498.5,132,75.8
0.071168,465.5,101.0,1731.5,147.1,2525.9,171.1,476.6,1710.3,2504.6,132.2,76
0.073168,464.9,103.3,1749.0,156.8,2524.2,180.3,467.1,1729.2,2511.1,132.5,76.1
0.075168,466.4,116.3,1751.4,176.6,2516.8,186.8,457.3,1747,2518,132.7,76.3
0.077168,467.9,143.9,1744.3,209.7,2505.3,184.8,447.6,1763.8,2525.5,132.9,76.5
0.079168,466.7,169.0,1739.8,240.3,2493.3,183.9,438.2,1779.9,2533.6,133.1,76.6
0.081168,460.5,180.9,1765.4,253.5,2491.1,208.5,429.2,1795.2,2542.5,133.2,76.7
0.083168,447.1,182.3,1821.1,229.5,2509.2,260.4,420.9,1810,2552,133.4,76.8
0.085168,427.5,175.8,1861.3,189.6,2537.5,305.5,413.4,1824.2,2562.3,133.5,76.9
0.087168,410.8,169.0,1877.4,165.6,2559.1,331.2,406.6,1838,2573.4,133.7,77
0.089168,402.3,171.8,1883.0,158.9,2582.3,345.9,400.7,1851.4,2585.3,133.8,77.1
0.091168,398.8,189.8,1885.8,161.8,2618.3,349.0,395.7,1864.4,2597.9,133.9,77.2
0.093168,396.4,210.9,1888.4,164.3,2652.3,335.4,391.5,1876.9,2611.2,134,77.3
0.095168,393.9,218.3,1894.2,163.6,2671.2,318.9,388,1888.8,2625.1,134,77.4
0.097168,389.9,212.4,1904.9,162.9,2673.9,309.6,385.1,1900.1,2639.6,134.1,77.6
0.099168,382.9,202.9,1917.3,162.8,2668.1,304.0,382.6,1910.7,2654.4,134.1,77.7
0.101168,375.2,192.6,1925.5,160.2,2667.7,300.3,380.6,1920.5,2669.5,134.1,77.8
0.103168,369.9,179.9,1928.0,157.9,2683.3,303.1,378.7,1929.3,2684.6,134.1,77.9
0.105168,366.9,168.8,1926.8,159.4,2712.0,306.0,377,1937.2,2699.8,134,78
0.107168,363.6,161.1,1924.1,161.7,2684.7,8150.7,375.2,1943.9,2714.7,134,78
0.109168,360.8,157.1,1922.9,159.0,2713.2,8131.4,373.4,1949.5,2729.1,133.9,78.1
0.111168,360.2,156.8,1925.2,153.6,2763.1,262.7,371.4,1954,2743,133.8,78.1
0.113168,360.4,158.6,1931.7,154.4,2766.1,246.4,369.2,1957.2,2756.1,133.6,78
0.115168,359.8,158.2,1942.8,164.6,2769.6,234.3,367,1959.2,2768.4,133.5,77.9
0.117168,359.0,153.8,1955.6,178.0,2774.3,225.0,364.6,1960.1,2779.5,133.3,77.7
0.119168,359.4,150.5,1963.8,191.3,2778.9,218.7,362.1,1960,2789.4,133.1,77.5
0.121168,360.5,152.9,1966.6,217.8,2782.3,215.3,359.8,1959,2798,132.8,77.2
0.123168,361.0,158.2,1965.5,273.7,2784.3,216.4,357.6,1957.1,2805.2,132.6,77
0.125168,360.2,158.3,1962.8,349.7,2789.4,227.5,355.7,1954.6,2810.9,132.3,76.9
0.127168,358.8,152.2,1959.5,388.9,2804.3,246.9,354.2,1951.5,2815.1,132,76.9
0.129168,358.3,143.7,1953.4,369.9,2824.7,254.8,353.3,1948.1,2817.8,131.6,76.9
0.131168,359.6,136.3,1948.6,332.3,2834.7,243.0,353.1,1944.5,2819,131.3,77.1
0.133168,362.4,132.2,1947.3,298.2,2831.4,223.7,353.6,1940.9,2818.8,130.9,77.2
0.135168,365.2,132.5,1948.6,276.4,2816.7,206.8,354.9,1937.4,2817.2,130.5,77.2
0.137168,366.4,132.3,1951.3,269.8,2797.8,196.6,357.1,1934.1,2814.4,130.1,77.2
0.139168,366.1,124.8,1952.9,273.2,2786.9,194.8,360.2,1931.1,2810.5,129.7,77
0.141168,366.1,112.1,1949.2,280.7,2788.0,201.4,364.1,1928.5,2805.7,129.2,76.9
0.143168,367.1,103.1,1937.3,285.2,2797.4,213.2,368.8,1926.4,2800.1,128.8,76.6
0.145168,369.4,98.9,1921.5,279.1,2810.1,224.1,374,1924.7,2793.9,128.3,76.3
0.147168,373.6,95.5,1909.5,265.9,2820.6,228.2,379.8,1923.5,2787.4,127.8,76
0.149168,380.0,93.0,1901.0,253.2,2824.6,230.0,385.9,1922.7,2780.7,127.4,75.6
0.151168,388.5,94.9,1893.2,242.1,2818.3,239.3,392.2,1922.3,2774.1,126.9,75.2
0.153168,397.2,98.6,1889.4,232.7,2801.0,256.8,398.3,1922.2,2767.6,126.4,74.8
0.155168,403.6,95.6,1894.0,227.6,2776.2,260.6,404.2,1922.3,2761.7,125.9,74.4
0.157168,407.4,87.3,1905.4,233.1,2747.9,237.2,409.6,1922.6,2756.3,125.5,74
0.159168,411.1,83.4,1922.8,246.8,2723.8,203.1,414.3,1922.9,2751.6,125,73.6
0.161168,415.3,88.2,1938.9,253.6,2714.6,182.6,418.1,1923.3,2747.9,124.6,73.2
0.163168,419.6,94.3,1945.2,245.8,2717.1,176.5,421,1923.6,2745.1,124.2,72.8
0.165168,424.2,95.0,1944.5,230.1,2726.1,179.0,422.7,1923.8,2743.4,123.8,72.4
0.167168,429.5,97.4,1940.0,214.1,2743.0,198.7,423.3,1923.9,2742.9,123.4,71.9
