time,f1,b1,f2,b2,f3,b3,f1p,f2p,f3p,f0,intensity
0.025245,398.9,280.4,966.7,256.2,2650.6,227.8,397.9,940.2,2598.2,130.7,72.4
0.027245,401.5,306.1,959.5,215.7,2657.7,245.8,399.7,940.8,2597.9,130.9,72.5
0.029245,406.3,337.7,951.2,181.7,2654.8,257.4,402.6,941.7,2597.5,131,72.6
0.031245,411.4,381.3,946.0,149.2,2634.6,281.8,406.6,943.1,2597,131.2,72.8
0.033245,414.7,425.7,943.5,123.1,2599.6,312.7,411.6,944.7,2596.5,131.4,73
0.035245,417.5,456.4,941.3,105.0,2565.5,329.2,417.4,946.6,2596,131.6,73.2
0.037245,420.5,486.4,938.8,92.6,2539.8,329.7,423.9,948.7,2595.7,131.8,73.4
0.039245,422.7,518.4,938.1,84.5,2527.1,317.9,431,950.9,2595.6,132,73.6
0.041245,426.7,530.5,940.8,78.0,2530.1,297.9,438.5,953.3,2595.9,132.1,73.9
0.043245,435.0,517.4,945.1,71.9,2545.1,275.2,446.3,955.7,2596.6,132.3,74.1
0.045245,445.5,502.6,948.7,69.2,2562.6,263.9,454.1,958.1,2597.8,132.5,74.3
0.047245,456.2,505.0,951.3,72.9,2577.1,270.3,461.9,960.4,2599.5,132.7,74.5
0.049245,469.0,508.9,954.7,81.7,2591.8,280.3,469.4,962.7,2601.8,132.8,74.6
0.051245,482.1,500.2,958.8,91.7,2609.0,272.6,476.5,964.7,2604.8,132.9,74.7
0.053245,493.2,496.1,962.2,103.5,2626.0,246.4,483.1,966.6,2608.3,133.1,74.8
0.055245,504.3,503.8,965.0,120.5,2639.7,210.1,489.2,968.3,2612.3,133.2,74.8
0.057245,514.2,493.0,968.7,135.6,2647.0,173.8,494.6,969.8,2616.9,133.3,74.7
0.059245,517.1,443.1,973.4,137.9,2649.0,142.2,499.3,971.1,2621.8,133.4,74.6
0.061245,512.5,383.0,975.7,129.9,2648.5,119.9,503.3,972.2,2627,133.4,74.4
0.063245,505.8,333.5,975.7,121.2,2647.6,106.5,506.5,973.2,2632.4,133.5,74.3
0.065245,502.1,302.4,976.5,116.2,2647.6,102.4,509.1,974,2637.8,133.5,74.1
0.067245,501.7,291.1,978.8,115.9,2648.8,109.9,510.9,974.7,2643.1,133.5,74
0.069245,504.0,298.0,981.6,121.9,2650.5,138.8,512.2,975.4,2648.1,133.5,73.9
0.071245,507.5,310.4,985.0,130.3,2652.9,194.4,513,976,2652.7,133.5,73.9
0.073245,508.9,309.8,988.0,133.9,2656.4,234.3,513.3,976.7,2656.9,133.4,73.9
0.075245,507.0,300.9,989.0,134.5,2660.6,198.2,513.2,977.5,2660.4,133.4,73.8
0.077245,505.4,306.6,986.9,141.4,2665.0,139.1,512.9,978.4,2663.2,133.3,73.8
0.079245,505.6,317.5,984.7,148.2,2668.4,104.2,512.5,979.5,2665.2,133.2,73.8
0.081245,505.8,312.3,984.3,145.1,2670.4,85.6,512.1,980.8,2666.4,133.1,73.8
0.083245,505.6,294.9,984.6,137.4,2670.3,79.5,511.7,982.3,2666.9,132.9,73.8
0.085245,506.9,281.5,985.1,134.6,2667.9,81.9,511.4,984.1,2666.6,132.7,73.8
0.087245,509.5,269.9,986.6,134.0,2664.0,87.9,511.3,986.1,2665.6,132.6,73.8
0.089245,511.5,258.9,988.2,133.2,2658.8,96.0,511.5,988.4,2664,132.4,73.7
0.091245,513.3,259.5,988.5,139.5,2650.8,110.0,512,990.8,2661.9,132.1,73.7
0.093245,516.7,272.5,988.0,157.0,2640.1,131.9,512.9,993.5,2659.5,131.9,73.6
0.095245,521.1,284.7,986.9,175.7,2632.9,154.2,514.1,996.3,2656.9,131.7,73.6
0.097245,525.4,289.4,985.3,185.7,2632.0,178.7,515.6,999.3,2654.2,131.4,73.5
0.099245,530.3,292.4,984.3,191.1,2633.1,213.6,517.5,1002.3,2651.7,131.1,73.5
0.101245,534.6,289.2,986.8,192.1,2634.5,248.3,519.6,1005.4,2649.4,130.8,73.6
0.103245,534.5,267.4,994.1,177.7,2639.8,248.2,522.1,1008.4,2647.5,130.5,73.6
0.105245,531.7,235.5,1004.0,154.6,2648.9,214.8,524.8,1011.4,2646.1,130.2,73.6
0.107245,530.1,207.4,1015.7,137.4,2658.2,172.5,527.6,1014.1,2645.3,129.8,73.6
0.109245,530.2,188.3,1025.8,129.4,2665.0,140.8,530.6,1016.7,2645.1,129.5,73.6
0.111245,530.5,175.6,1028.8,124.5,2668.7,123.3,533.7,1019,2645.7,129.1,73.5
0.113245,531.0,167.5,1024.1,122.8,2668.3,119.5,536.8,1021,2647,128.7,73.4
0.115245,532.6,164.4,1018.4,134.2,2662.3,128.4,539.9,1022.7,2648.9,128.4,73.3
0.117245,534.8,160.1,1018.8,162.9,2655.3,138.4,542.9,1023.9,2651.5,128,73.2
0.119245,536.7,150.4,1028.4,203.2,2654.5,142.0,545.9,1024.8,2654.6,127.6,73
0.121245,538.5,143.0,1043.6,224.3,2663.4,142.0,548.7,1025.2,2658.2,127.1,72.8
0.123245,541.6,144.3,1051.4,208.0,2677.4,139.4,551.4,1025.3,2662,126.7,72.6
0.125245,545.7,147.4,1049.1,180.0,2688.0,129.1,553.9,1024.9,2666,126.3,72.4
0.127245,548.4,149.4,1041.1,160.4,2685.8,112.9,556.3,1024.1,2670,125.9,72.3
0.129245,550.8,158.8,1030.4,151.7,2672.5,99.7,558.4,1023,2673.9,125.4,72.1
0.131245,555.4,179.8,1017.4,147.7,2657.7,92.5,560.5,1021.5,2677.5,125,72
0.133245,561.3,196.8,1007.0,141.2,2652.6,90.1,562.3,1019.7,2680.6,124.6,71.9
0.135245,567.2,197.3,1003.7,135.4,2657.7,90.8,564,1017.6,2683.3,124.1,71.9
0.137245,575.4,191.2,1008.2,141.2,2667.9,97.2,565.6,1015.3,2685.3,123.7,72
0.139245,583.9,186.3,1017.1,161.0,2678.0,107.4,567,1012.8,2686.7,123.3,72.1
0.141245,587.7,179.5,1021.6,177.6,2684.8,110.5,568.4,1010.2,2687.4,122.8,72.4
0.143245,585.7,172.0,1015.7,175.1,2686.4,104.4,569.6,1007.5,2687.4,122.4,72.6
0.145245,580.6,168.8,1000.9,155.9,2684.6,98.1,570.7,1004.8,2686.7,122,72.8
0.147245,576.2,175.3,985.9,136.1,2683.1,99.7,571.8,1002.1,2685.4,121.6,73.1
0.149245,574.2,184.4,977.3,123.9,2683.6,104.6,572.8,999.5,2683.5,121.3,73.2
0.151245,573.1,189.2,973.4,116.2,2684.9,104.2,573.7,997,2681.3,120.9,73.2
0.153245,571.7,194.7,971.6,115.4,2685.7,101.5,574.5,994.7,2678.8,120.6,73
0.155245,568.8,205.6,970.5,126.9,2685.3,104.8,575.3,992.5,2676.1,120.2,72.7
0.157245,563.7,210.6,969.8,156.1,2683.2,116.9,576,990.6,2673.4,119.9,72.3
0.159245,558.5,189.4,971.3,195.1,2679.0,129.2,576.6,988.9,2670.9,0,71.8
0.161245,557.1,155.0,976.2,223.3,2672.7,126.4,577,987.5,2668.6,0,71.2
0.163245,564.5,126.4,987.2,241.5,2666.4,107.2,577.4,986.4,2666.7,0,70.7
0.165245,579.9,110.5,1006.1,255.7,2662.6,91.1,577.7,985.6,2665.2,0,70.3
0.167245,591.9,107.0,1024.6,260.3,2661.2,87.6,577.9,985.1,2664.3,0,69.9
0.169245,598.2,121.8,1040.2,272.7,2661.0,94.1,577.9,985,2664,0,69.5
