time,f1,b1,f2,b2,f3,b3,f1p,f2p,f3p,f0,intensity
0.025630,525.8,355.5,1367.3,153.0,2462.5,158.8,586,1358.8,2457.7,168.2,74.4
0.027630,572.5,295.4,1365.6,132.5,2460.9,155.0,588.9,1358.3,2454.7,168.2,74.7
0.029630,597.4,247.8,1362.1,117.9,2451.5,147.1,593.6,1357.4,2449.8,168.2,75.1
0.031630,611.2,212.9,1356.3,107.4,2435.6,140.2,600,1356.2,2443.2,168.1,75.4
0.033630,620.4,184.7,1349.0,97.4,2420.2,136.2,607.8,1354.7,2435.3,168.1,75.7
0.035630,628.4,163.2,1342.9,89.2,2414.2,140.0,616.8,1352.8,2426.5,168,75.8
0.037630,638.8,148.3,1339.0,85.2,2417.4,151.9,626.5,1350.7,2417,168,76
0.039630,651.8,144.0,1339.3,88.0,2418.9,157.4,636.8,1348.2,2407.5,167.9,76.1
0.041630,667.0,145.4,1343.8,97.4,2412.2,152.6,647.3,1345.4,2398.1,167.8,76.2
0.043630,678.9,144.9,1349.6,108.6,2403.0,146.4,657.5,1342.2,2389.4,167.7,76.3
0.045630,685.2,140.2,1351.2,115.3,2391.5,147.6,667.2,1338.6,2381.5,167.6,76.5
0.047630,685.7,134.2,1343.8,112.9,2375.9,159.4,676.2,1334.6,2374.8,167.4,76.8
0.049630,683.6,127.4,1330.0,102.6,2355.3,174.9,684,1330.1,2369.4,167.3,77
0.051630,682.5,120.7,1318.2,91.0,2342.9,178.1,690.6,1325,2365.3,167.2,77.2
0.053630,683.5,113.5,1310.2,81.7,2347.3,172.4,695.9,1319.4,2362.6,167,77.4
0.055630,685.2,104.9,1305.3,76.0,2361.4,169.5,699.6,1313.1,2361.1,166.8,77.5
0.057630,686.4,96.0,1301.1,73.3,2372.4,173.7,701.8,1306.2,2360.7,166.6,77.5
0.059630,686.9,90.8,1297.2,74.7,2372.7,186.5,702.6,1298.5,2361.2,166.4,77.5
0.061630,687.3,90.2,1292.4,81.2,2366.0,208.1,702,1290.1,2362.2,166.1,77.6
0.063630,688.0,93.3,1286.6,90.8,2360.8,225.8,700.1,1281.1,2363.6,165.9,77.6
0.065630,689.5,99.3,1279.5,101.3,2362.7,228.6,697.1,1271.3,2364.9,165.6,77.8
0.067630,691.3,107.2,1269.9,110.4,2368.3,218.2,693.2,1261,2366,165.3,78
0.069630,691.8,113.2,1258.2,114.8,2370.1,205.5,688.7,1250.1,2366.7,165,78.2
0.071630,690.3,117.4,1243.8,115.5,2366.7,191.7,683.6,1238.8,2366.6,164.7,78.4
0.073630,688.0,120.6,1229.5,114.2,2362.3,174.3,678.3,1227.2,2365.9,164.3,78.6
0.075630,684.7,121.9,1215.2,110.8,2360.7,151.6,673,1215.4,2364.3,163.9,78.9
0.077630,680.1,119.1,1201.5,105.5,2361.8,130.2,667.7,1203.5,2361.9,163.5,79
0.079630,674.0,112.9,1186.5,99.1,2363.0,111.4,662.7,1191.8,2358.7,163.1,79.2
0.081630,667.8,106.9,1172.3,93.2,2361.6,97.1,658,1180.2,2355,162.7,79.2
0.083630,660.7,102.2,1158.5,87.0,2355.3,85.4,653.8,1169,2350.8,162.3,79.2
0.085630,653.6,99.5,1146.4,80.9,2345.5,76.9,650,1158.1,2346.3,161.8,79.2
0.087630,646.5,98.6,1136.1,75.2,2335.2,70.5,646.7,1147.6,2341.8,161.3,79.1
0.089630,641.0,99.8,1130.2,72.9,2328.9,67.5,643.8,1137.5,2337.5,160.8,78.9
0.091630,636.9,103.7,1127.5,76.8,2326.7,67.8,641.3,1127.8,2333.4,160.3,78.7
0.093630,634.4,108.6,1125.6,87.0,2327.3,69.6,639,1118.4,2329.8,159.8,78.5
0.095630,632.1,112.5,1121.5,103.1,2328.1,71.0,636.8,1109.2,2326.7,159.2,78.2
0.097630,629.3,114.0,1114.8,123.9,2327.2,72.3,634.7,1100,2324.2,158.6,77.9
0.099630,625.3,113.8,1104.9,150.0,2325.2,74.0,632.5,1090.8,2322.3,158.1,77.6
0.101630,621.1,114.3,1092.3,174.4,2323.0,76.8,630.1,1081.4,2321,157.5,77.3
0.103630,617.1,119.6,1077.2,195.1,2320.7,81.2,627.4,1071.6,2320.1,156.8,76.9
0.105630,613.9,132.4,1060.4,210.9,2319.6,85.7,624.3,1061.3,2319.5,156.2,76.6
0.107630,612.3,150.7,1044.8,217.4,2321.0,86.8,620.7,1050.4,2319.2,155.6,76.4
0.109630,613.3,175.9,1030.4,221.3,2323.3,85.9,616.8,1038.8,2318.9,155,76.2
0.111630,617.1,200.8,1018.5,229.0,2324.2,85.4,612.3,1026.5,2318.5,154.3,76.1
0.113630,619.1,212.4,1005.7,235.2,2322.3,86.4,607.4,1013.6,2317.9,153.7,76.1
0.115630,614.8,204.4,992.6,234.6,2317.6,90.0,602.1,1000,2317,153,76.1
0.117630,606.8,187.3,979.0,232.3,2311.9,92.5,596.6,986,2315.7,152.4,76.1
0.119630,598.6,171.9,966.6,227.6,2309.9,87.9,590.8,971.7,2314,151.8,76
0.121630,590.1,161.7,953.0,218.0,2310.5,77.7,585,957.5,2311.9,151.2,75.8
0.123630,583.9,161.2,940.7,210.9,2309.4,70.3,579.3,943.5,2309.6,150.6,75.5
0.125630,580.0,171.4,931.1,214.8,2304.3,69.6,573.7,930.1,2307,150,75.1
0.127630,575.7,184.7,925.9,230.7,2296.9,76.1,568.6,917.6,2304.3,149.4,74.7
0.129630,567.3,193.5,924.3,263.0,2289.6,89.0,563.9,906.4,2301.7,148.8,74.2
0.131630,558.7,196.0,924.8,315.0,2288.2,102.2,559.9,896.7,2299.2,148.3,73.8
0.133630,551.8,201.6,917.9,372.4,2293.6,108.2,556.7,888.9,2297.2,147.8,73.5
0.135630,547.4,226.1,892.5,389.4,2300.2,104.8,554.3,883.1,2295.6,147.3,73.3
0.137630,544.1,271.4,858.3,361.6,2305.1,97.1,552.8,879.6,2294.6,146.9,73.1
0.139630,540.4,311.2,833.1,325.1,2311.1,85.8,552.4,878.4,2294.3,146.4,73
