time,f1,b1,f2,b2,f3,b3,f1p,f2p,f3p,f0,intensity
0.025113,342.4,43.9,2159.4,565.6,2535.5,219.1,346.3,2124.9,2560.2,160.8,69.6
0.027113,353.0,46.3,2110.7,613.8,2555.4,172.2,349.4,2111.3,2556,163.4,69.7
0.029113,357.3,46.7,2051.3,695.3,2558.8,147.1,354.5,2089.4,2549.3,166.1,69.9
0.031113,359.3,47.8,2007.4,763.8,2551.6,145.6,361.3,2060.1,2540.4,169.1,70.4
0.033113,366.0,50.7,2005.2,765.2,2536.6,168.8,369.6,2024.7,2529.7,172.3,70.9
0.035113,379.9,50.3,2017.9,734.2,2518.9,211.1,379.1,1984.9,2517.9,175.7,71.4
0.037113,394.3,41.9,2012.7,753.6,2503.9,259.4,389.5,1942.2,2505.4,179.2,71.9
0.039113,404.0,30.8,1970.2,845.8,2489.9,300.3,400.5,1898.4,2492.9,182.8,72.3
0.041113,412.0,20.7,1854.5,882.6,2475.9,320.5,411.8,1855.1,2481.1,186.6,72.7
0.043113,421.1,13.8,1772.1,712.4,2470.3,322.7,423,1813.8,2470.3,190.5,73.1
0.045113,432.2,11.0,1746.6,580.7,2465.5,338.8,434,1775.6,2461.2,194.4,73.5
0.047113,443.3,10.8,1719.7,565.5,2455.1,376.3,444.6,1741.5,2454,198.4,73.9
0.049113,453.7,10.9,1687.8,596.2,2449.4,406.8,454.7,1712.1,2449,202.4,74.3
0.051113,462.6,10.1,1661.9,620.7,2453.9,408.1,464.2,1687.4,2446.3,206.4,74.6
0.053113,470.1,8.5,1640.9,596.0,2458.7,386.5,473.2,1667.4,2445.9,210.3,74.6
0.055113,476.9,7.0,1636.3,439.9,2457.5,375.3,481.6,1651.5,2447.6,214.1,74.4
0.057113,483.8,7.1,1651.2,250.7,2447.8,402.2,489.7,1639,2451.3,217.9,73.9
0.059113,493.7,10.5,1656.3,151.9,2439.1,402.9,497.6,1628.9,2456.6,221.5,73.2
0.061113,508.4,18.5,1651.2,112.8,2449.1,365.7,505.3,1620.2,2463.1,225,72.2
0.063113,526.3,29.0,1640.0,93.0,2464.8,321.3,513,1611.8,2470.4,228.4,71.2
0.065113,539.5,36.9,1622.9,80.0,2476.6,282.3,520.8,1602.8,2478.2,231.5,70.1
0.067113,542.8,41.2,1601.5,71.1,2483.0,255.1,528.7,1592.1,2486,234.5,69
0.069113,540.1,46.3,1577.7,64.2,2488.5,235.6,536.8,1579.2,2493.5,237.3,68
0.071113,537.1,55.6,1557.3,60.3,2496.5,219.5,545.1,1563.7,2500.4,239.9,66.9
0.073113,538.9,67.3,1541.2,59.2,2507.9,202.6,553.5,1545.4,2506.6,0,65.8
0.075113,547.8,69.9,1527.9,61.0,2521.9,179.9,561.8,1524.4,2511.8,0,64.6
0.077113,558.7,59.0,1515.5,66.6,2532.2,154.4,570,1501.1,2516.1,0,63.5
0.079113,568.7,49.9,1494.6,83.1,2531.4,137.1,577.7,1476.1,2519.5,0,62.5
0.081113,579.0,60.4,1443.3,105.3,2522.1,129.4,584.9,1450.3,2522.1,0,61.9
0.083113,590.7,99.2,1382.2,98.0,2519.8,118.7,591.4,1424.3,2524,0,61.7
0.085113,603.7,161.8,1351.7,81.9,2524.5,110.5,597,1399.2,2525.5,0,61.9
0.087113,616.3,208.0,1337.8,69.1,2528.4,100.8,601.7,1375.7,2526.6,0,62.2
0.089113,622.0,191.8,1331.8,57.0,2529.5,86.8,605.2,1354.6,2527.7,0,62.5
0.091113,622.0,152.8,1329.2,47.1,2529.9,71.0,607.7,1336.5,2528.7,0,62.5
0.093113,619.7,125.5,1328.2,41.4,2530.4,57.2,609.2,1321.8,2530,0,62.3
0.095113,616.0,120.2,1328.6,41.5,2530.3,49.6,609.9,1310.5,2531.5,0,61.8
0.097113,606.2,140.9,1329.8,49.8,2528.1,51.3,609.8,1302.6,2533.2,0,61
0.099113,585.2,176.8,1330.1,67.0,2523.6,67.2,609.3,1297.8,2535.3,0,60.2
0.101113,572.4,175.0,1327.0,87.0,2520.0,100.7,608.4,1295.6,2537.5,0,59.5
0.103113,590.9,133.5,1322.8,100.6,2526.5,150.4,607.6,1295.5,2539.8,0,59.2
0.105113,616.0,96.2,1323.0,103.5,2542.3,189.1,607.1,1296.7,2542.1,0,59.2
0.107113,628.1,73.2,1323.5,106.3,2551.7,197.2,607,1298.5,2544.3,0,59.5
0.109113,625.6,67.9,1318.5,123.8,2553.9,188.8,607.5,1300.2,2546.2,0,59.9
0.111113,616.1,79.5,1302.9,159.4,2557.7,175.8,608.8,1301.2,2547.7,0,60.1
0.113113,607.5,105.2,1275.8,187.1,2561.9,162.9,611,1301.2,2548.7,0,60.2
0.115113,605.7,129.0,1253.5,178.1,2566.0,161.6,613.9,1299.7,2549.3,0,60.1
0.117113,612.4,137.2,1246.1,153.9,2567.8,174.2,617.6,1296.7,2549.3,0,59.9
0.119113,622.1,130.2,1248.1,136.1,2555.2,189.3,621.9,1292.3,2548.9,0,59.5
0.121113,629.8,122.7,1253.3,128.6,2529.7,191.9,626.6,1286.6,2548,0,59
0.123113,634.9,127.4,1260.1,131.3,2516.8,176.7,631.4,1280.3,2546.9,0,58.4
0.125113,638.3,149.0,1266.5,140.0,2525.5,152.5,636.1,1273.6,2545.7,0,57.7
0.127113,639.7,172.0,1269.1,142.7,2539.6,128.6,640.4,1267.1,2544.4,0,57
0.129113,641.1,175.9,1271.1,138.2,2548.9,108.5,644.1,1261.4,2543.2,0,56.3
0.131113,643.4,166.7,1275.7,134.8,2552.8,95.1,646.9,1257,2542.3,0,55.5
0.133113,646.8,161.3,1284.9,140.1,2551.0,90.5,648.6,1254.1,2541.7,0,54.6
0.135113,652.4,171.0,1302.6,160.9,2543.0,98.3,649.2,1253.2,2541.5,0,53.4
