time,f1,b1,f2,b2,f3,b3,f1p,f2p,f3p,f0,intensity
0.026000,327.0,66.7,1690.6,288.9,2327.4,102.2,320.6,1679.8,2354.4,147.3,77.5
0.028000,323.0,66.3,1713.9,313.3,2331.6,98.5,320.3,1696.6,2350.2,147.3,77.7
0.030000,320.0,67.7,1741.7,341.2,2337.7,96.3,319.8,1723.7,2343.5,147.3,77.9
0.032000,317.9,67.8,1768.8,371.3,2342.1,97.9,319.1,1759.8,2335.1,147.3,78.1
0.034000,316.3,66.7,1797.3,410.6,2343.0,105.8,318.4,1803.5,2325.7,147.3,78.3
0.036000,315.0,66.2,1834.4,462.3,2339.6,121.6,317.6,1852.5,2316.3,147.3,78.5
0.038000,314.3,65.8,1875.7,518.7,2333.6,139.7,316.9,1905,2307.9,147.3,78.6
0.040000,314.2,65.9,1921.9,584.9,2326.0,157.6,316.3,1958.5,2301.4,147.3,78.8
0.042000,314.5,67.7,1976.7,653.9,2316.8,175.0,315.9,2011.1,2297.9,147.3,78.9
0.044000,315.0,70.6,2038.6,709.5,2307.3,192.0,315.8,2060.6,2298.1,147.3,79
0.046000,315.5,72.9,2103.0,756.5,2297.5,208.4,315.9,2105.5,2302.6,147.3,79.2
0.048000,315.9,75.1,2173.5,814.5,2285.5,222.2,316.4,2144.2,2311.8,147.2,79.3
0.050000,316.9,78.8,2241.8,854.0,2273.6,231.8,317.2,2176,2326,147.2,79.5
0.052000,318.7,84.0,2260.9,243.7,2300.0,836.1,318.3,2200.2,2344.9,147.2,79.6
0.054000,320.7,89.9,2245.1,257.5,2343.8,784.9,319.6,2216.8,2368.2,147.1,79.8
0.056000,322.5,96.4,2227.2,262.4,2383.8,751.0,321.2,2226.1,2395.4,147.1,79.9
0.058000,324.2,103.0,2211.7,255.3,2429.2,734.9,322.9,2228.9,2425.5,147,80
0.060000,325.8,108.8,2198.3,244.9,2481.2,700.2,324.7,2225.9,2457.8,147,80.1
0.062000,327.4,114.6,2186.2,236.0,2529.4,640.9,326.5,2218.6,2491.1,146.9,80.1
0.064000,329.2,120.8,2178.3,230.4,2560.1,590.4,328.3,2208,2524.5,146.8,80.2
0.066000,331.2,126.0,2173.8,226.7,2583.1,549.0,329.9,2195.6,2557,146.8,80.2
0.068000,332.9,128.5,2170.4,225.0,2606.4,505.8,331.3,2182.6,2587.5,146.7,80.3
0.070000,333.8,128.1,2167.0,225.8,2628.9,468.0,332.4,2170.1,2615.4,146.6,80.3
0.072000,333.7,125.5,2163.8,228.2,2645.2,451.9,333.2,2159,2640,146.5,80.3
0.074000,332.5,121.4,2160.2,232.0,2655.4,462.7,333.7,2149.9,2660.9,146.4,80.3
0.076000,331.0,118.6,2155.7,232.7,2663.1,485.2,333.9,2143.3,2677.9,146.3,80.3
0.078000,330.3,117.9,2151.1,224.3,2671.0,503.1,333.7,2139.2,2690.9,146.2,80.3
0.080000,330.3,118.3,2148.9,208.4,2675.3,511.7,333.4,2137.6,2700.2,146.1,80.2
0.082000,330.9,119.4,2149.5,190.3,2674.1,509.6,332.8,2138.1,2705.9,146,80.2
0.084000,332.0,121.5,2151.6,170.8,2673.8,501.5,332,2140.3,2708.4,145.8,80.2
0.086000,332.7,122.0,2154.4,149.4,2682.2,505.9,331.2,2143.7,2708.3,145.7,80.1
0.088000,331.7,118.9,2156.3,128.4,2699.8,529.7,330.4,2147.6,2706,145.6,80.1
0.090000,329.9,114.8,2155.4,114.1,2716.5,556.8,329.7,2151.4,2702.1,145.4,80
0.092000,328.5,111.8,2152.5,106.5,2725.0,573.4,329.2,2154.8,2696.9,145.3,79.9
0.094000,328.3,110.5,2148.5,104.4,2722.0,571.2,328.8,2157.2,2690.8,145.2,79.9
0.096000,329.2,111.4,2144.2,106.5,2710.8,549.0,328.7,2158.5,2684.2,145,79.8
0.098000,330.9,113.4,2140.7,110.5,2697.5,517.1,328.9,2158.5,2677.2,144.9,79.7
0.100000,332.5,113.8,2139.1,114.6,2682.6,491.6,329.5,2157.3,2670,144.7,79.6
0.102000,332.8,112.3,2139.8,119.6,2666.7,477.4,330.3,2155.1,2662.6,144.6,79.5
0.104000,332.9,111.1,2142.1,123.6,2653.0,467.9,331.5,2152.2,2654.9,144.4,79.5
0.106000,333.6,110.7,2145.2,121.8,2644.4,463.7,333,2148.8,2646.9,144.2,79.4
0.108000,334.9,110.5,2148.3,117.3,2636.3,466.0,334.8,2145.4,2638.6,144.1,79.3
0.110000,336.2,110.8,2151.1,117.2,2624.6,467.5,336.7,2142.3,2629.9,143.9,79.2
0.112000,337.9,110.9,2153.6,122.7,2611.0,453.7,338.9,2139.8,2620.7,143.8,79.1
0.114000,339.9,108.8,2154.7,132.2,2594.7,416.6,341.1,2138.2,2611.1,143.6,79
0.116000,341.7,105.4,2152.1,146.7,2577.3,365.7,343.3,2137.5,2601.3,143.5,78.9
0.118000,343.1,101.8,2146.6,167.4,2565.8,321.7,345.6,2137.7,2591.3,143.3,78.7
0.120000,344.7,98.4,2143.5,191.2,2564.6,307.4,347.7,2138.9,2581.5,143.2,78.6
0.122000,346.8,97.5,2145.9,216.3,2569.9,324.8,349.7,2140.7,2572,143,78.5
0.124000,349.1,100.5,2149.7,240.4,2575.6,352.9,351.5,2143,2563.2,142.9,78.4
0.126000,351.4,103.6,2150.3,258.8,2575.8,356.9,353,2145.4,2555.5,142.7,78.3
0.128000,353.6,102.1,2148.1,270.6,2567.4,326.4,354.2,2147.7,2549.1,142.6,78.2
0.130000,356.1,97.9,2143.7,283.9,2553.6,278.4,355.1,2149.5,2544.4,142.5,78.1
0.132000,359.1,93.5,2137.1,296.1,2543.1,236.4,355.6,2150.7,2541.4,142.4,78
0.134000,362.3,88.2,2129.4,306.3,2537.2,216.9,355.8,2151.2,2540.4,142.2,77.9
