time,f1,b1,f2,b2,f3,b3,f1p,f2p,f3p,f0,intensity
0.025016,497.7,305.7,1333.6,89.7,2343.6,377.1,522.9,1338.9,2302.4,136.9,68.6
0.027016,501.3,238.9,1332.3,78.4,2314.9,299.6,523.6,1337.9,2303.4,135.1,69.6
0.029016,504.0,186.8,1330.7,76.0,2293.2,239.9,524.7,1336.4,2305,133.2,70.4
0.031016,507.6,144.5,1326.7,79.9,2277.7,193.9,526.3,1334.2,2307.3,131.2,70.9
0.033016,513.1,113.9,1320.0,86.1,2270.2,162.7,528.4,1331.5,2310.2,129,71.4
0.035016,520.8,93.4,1313.8,92.5,2271.5,148.1,530.9,1328.2,2313.7,126.8,71.7
0.037016,530.9,80.1,1314.1,102.1,2281.8,150.5,533.8,1324.4,2317.7,124.4,72
0.039016,539.9,73.5,1322.8,113.0,2298.7,163.5,537.1,1320.1,2322.2,121.9,72.2
0.041016,548.0,73.6,1335.4,124.1,2320.1,176.6,540.7,1315.5,2327.1,119.4,72.3
0.043016,557.8,84.2,1346.8,140.0,2345.0,183.7,544.7,1310.4,2332.4,116.8,72.4
0.045016,570.5,103.2,1349.3,158.3,2366.3,183.8,549.1,1305.1,2337.9,114.1,72.5
0.047016,582.4,119.8,1335.8,165.7,2380.8,178.8,553.7,1299.5,2343.8,0,72.7
0.049016,588.5,122.4,1307.3,150.0,2390.8,171.8,558.6,1293.7,2349.9,108.8,72.9
0.051016,588.3,108.5,1277.5,116.3,2398.8,167.6,563.7,1287.9,2356.1,106.1,73.1
0.053016,585.9,90.2,1259.1,87.2,2404.2,169.5,568.9,1282,2362.4,103.5,73.2
0.055016,585.0,81.2,1251.6,73.7,2404.0,169.0,574.3,1276.2,2368.8,100.9,73.2
0.057016,587.0,85.0,1248.6,73.6,2394.9,155.2,579.7,1270.5,2375.2,98.4,73
0.059016,593.2,100.2,1245.3,82.8,2382.4,136.3,585.1,1265.1,2381.6,96,72.8
0.061016,603.3,119.0,1241.6,97.8,2376.4,125.3,590.5,1259.9,2387.9,93.8,72.6
0.063016,612.1,129.2,1239.9,115.9,2379.6,121.7,595.8,1255.1,2394.2,91.6,72.5
0.065016,615.0,128.1,1240.5,131.3,2387.7,116.6,600.9,1250.8,2400.4,89.5,72.5
0.067016,613.3,121.6,1242.5,137.8,2396.5,105.1,605.9,1246.9,2406.5,87.6,72.5
0.069016,609.9,117.2,1246.1,136.5,2404.8,89.4,610.5,1243.6,2412.5,85.9,72.5
0.071016,607.0,121.0,1250.2,132.3,2411.7,74.8,614.9,1241,2418.4,84.2,72.5
0.073016,605.8,132.5,1251.7,127.0,2415.7,65.6,619,1238.9,2424.3,82.7,72.4
0.075016,606.9,145.4,1249.3,121.7,2416.3,63.3,622.7,1237.6,2430,81.4,72.4
0.077016,610.7,156.0,1246.4,120.8,2413.8,66.9,625.9,1236.9,2435.7,80.2,72.3
0.079016,615.4,161.6,1244.7,123.2,2409.5,72.9,628.8,1236.8,2441.4,79.1,72.2
0.081016,617.5,157.9,1244.0,125.5,2406.7,76.7,631.2,1237.5,2447,78.1,72.1
0.083016,614.8,148.4,1244.0,128.8,2409.5,78.0,633.2,1238.7,2452.7,77.3,71.8
0.085016,608.7,139.3,1245.5,136.5,2419.8,81.4,634.7,1240.5,2458.3,76.5,71.5
0.087016,603.4,134.9,1249.7,148.6,2437.4,90.8,635.9,1242.9,2464,75.9,71.1
0.089016,604.4,138.1,1255.6,158.4,2459.6,105.9,636.7,1245.7,2469.7,75.3,70.7
0.091016,612.4,148.0,1258.0,159.8,2481.8,124.2,637.1,1248.9,2475.5,74.9,70.4
0.093016,622.1,158.4,1254.7,155.6,2499.9,140.8,637.2,1252.3,2481.3,74.5,70.2
0.095016,629.1,165.8,1249.4,153.4,2513.2,150.3,637,1255.9,2487.2,74.1,70.1
0.097016,634.0,176.6,1246.1,163.1,2526.5,159.9,636.7,1259.6,2493.1,73.8,70
0.099016,639.8,195.6,1248.2,190.8,2544.0,180.5,636.2,1263.2,2499.1,73.6,69.9
0.101016,646.5,214.1,1257.2,226.3,2562.8,208.4,635.7,1266.6,2505.1,73.4,69.6
0.103016,651.5,224.0,1269.4,249.0,2572.1,231.4,635.2,1269.7,2511.2,73.3,69.3
0.105016,655.1,232.8,1279.1,251.4,2564.2,245.3,634.8,1272.4,2517.3,73.2,68.9
0.107016,660.4,250.6,1281.5,238.4,2544.2,250.4,634.5,1274.6,2523.3,73.1,68.6
0.109016,667.8,262.9,1274.5,216.0,2528.7,248.3,634.5,1276.2,2529.4,73,68.3
0.111016,670.9,238.8,1263.8,190.0,2523.8,244.1,634.7,1277.1,2535.3,73,68.3
0.113016,668.3,200.8,1256.2,171.5,2528.0,243.2,635.3,1277.2,2541.2,73,68.3
0.115016,664.7,178.4,1255.4,165.8,2540.5,245.2,636.3,1276.5,2547,72.9,68.2
0.117016,661.7,168.9,1260.6,167.7,2560.8,246.4,637.8,1275,2552.7,72.9,68
0.119016,658.7,170.3,1271.0,175.1,2583.6,244.4,639.7,1272.6,2558.2,72.9,67.6
0.121016,654.7,186.8,1285.0,187.8,2595.4,236.6,642.1,1269.3,2563.6,72.9,67
0.123016,650.2,223.7,1292.0,203.2,2584.8,218.0,645,1265.2,2568.7,72.9,66.3
0.125016,648.4,255.7,1279.6,211.4,2561.5,188.2,648.4,1260.2,2573.7,73,65.8
0.127016,645.8,254.0,1259.9,205.8,2539.6,154.9,652.2,1254.6,2578.5,73,65.4
0.129016,640.4,239.1,1247.2,194.5,2521.0,128.2,656.5,1248.3,2583.2,73,65.1
0.131016,634.5,231.7,1243.1,187.1,2503.3,112.7,661.2,1241.5,2587.6,73,64.8
0.133016,630.2,244.2,1241.5,188.2,2485.6,110.9,666.2,1234.3,2591.9,73,64.6
0.135016,633.2,283.5,1230.2,201.3,2473.5,130.5,671.4,1226.8,2596,73,64.5
0.137016,650.5,306.4,1203.0,223.9,2484.3,185.8,676.8,1219.2,2600,73,64.6
0.139016,665.6,272.7,1178.8,234.5,2532.5,265.2,682.3,1211.7,2603.9,73.1,64.8
0.141016,669.8,235.7,1169.5,233.7,2597.7,329.9,687.8,1204.4,2607.7,73.1,64.9
0.143016,672.9,223.0,1178.1,247.8,2652.7,371.1,693.3,1197.4,2611.5,73.1,64.9
0.145016,679.3,232.1,1209.9,287.3,2686.2,405.1,698.5,1191,2615.3,73.1,64.6
0.147016,684.8,260.7,1263.9,337.0,2701.6,459.2,703.4,1185.3,2619.1,73.1,64.1
0.149016,686.3,327.0,1313.1,380.3,2728.8,512.7,708,1180.4,2622.9,73.1,63.5
0.151016,697.0,431.1,1309.2,451.2,2772.2,478.4,712.2,1176.4,2626.8,73.1,62.8
0.153016,730.4,494.4,1221.2,571.2,2768.9,374.5,715.8,1173.5,2630.9,73.1,62.4
0.155016,774.8,564.9,1082.2,636.7,2734.1,291.4,718.8,1171.8,2635.1,73.1,62.2
0.157016,801.5,692.8,993.4,562.4,2700.9,234.1,721.2,1171.3,2639.4,73.2,62.1
0.159016,769.7,684.7,1032.2,521.3,2677.4,196.4,722.9,1172,2643.9,73.2,62
0.161016,735.9,577.0,1114.2,469.2,2664.7,178.1,723.9,1174,2648.6,73.2,61.9
0.163016,724.1,457.9,1171.7,388.2,2665.8,179.6,724.1,1177.2,2653.4,73.2,61.9
0.165016,718.6,375.8,1187.6,330.3,2667.9,181.1,723.7,1181.7,2658.4,73.2,62
0.167016,702.7,345.1,1177.5,296.3,2642.1,159.3,722.7,1187.3,2663.6,73.3,62.2
0.169016,681.9,327.2,1170.2,264.3,2604.7,129.8,720.9,1193.9,2668.8,73.3,62.3
0.171016,666.1,311.6,1178.2,237.5,2576.6,109.6,718.7,1201.5,2674.1,73.3,62.2
0.173016,659.9,319.0,1202.1,229.1,2561.6,103.4,715.8,1209.8,2679.4,73.4,61.9
0.175016,663.8,372.0,1237.7,245.3,2559.4,113.2,712.6,1218.8,2684.8,73.4,61.4
0.177016,682.2,472.6,1274.6,296.1,2570.4,143.1,709,1228.2,2690,73.4,60.8
0.179016,726.6,521.3,1312.5,411.4,2598.7,198.0,705.2,1237.8,2695.2,73.5,60.3
0.181016,771.2,457.4,1374.3,587.1,2646.7,253.8,701.2,1247.5,2700.1,73.5,60
0.183016,792.9,414.5,1429.6,738.3,2693.0,263.6,697.2,1257,2704.8,73.6,60.1
0.185016,810.8,447.9,1408.9,896.2,2719.9,252.6,693.3,1266.1,2709.3,73.7,60.3
0.187016,840.1,575.8,1257.2,1028.1,2733.3,263.3,689.6,1274.7,2713.3,73.7,60.5
0.189016,798.9,888.9,1119.2,714.7,2737.9,299.8,686.1,1282.6,2717,73.8,60.7
0.191016,669.0,904.6,1185.4,537.5,2736.1,333.5,683,1289.6,2720.2,73.8,60.8
0.193016,606.4,846.3,1252.4,441.1,2736.1,328.9,680.3,1295.5,2722.8,73.9,60.8
0.195016,577.2,824.8,1295.6,357.5,2744.3,308.1,678.2,1300.2,2724.9,74,60.6
0.197016,586.6,827.7,1305.8,312.0,2763.8,306.7,676.6,1303.7,2726.5,74,60.3
0.199016,617.8,800.6,1294.8,304.2,2796.7,345.1,675.6,1305.8,2727.4,74.1,60.1
0.201016,626.3,781.6,1271.9,322.2,2847.5,453.4,675.3,1306.5,2727.7,74.1,59.8
