time,f1,b1,f2,b2,f3,b3,f1p,f2p,f3p,f0,intensity
0.025213,481.5,168.8,2014.1,142.7,2483.2,223.3,471.8,2051,2482.3,140.7,66.4
0.027213,477.3,145.3,2019.6,137.6,2477.2,220.4,468.8,2051.9,2495.9,140.5,67.8
0.029213,471.4,126.7,2029.5,138.3,2494.5,225.9,463.8,2053.5,2518,140.3,69
0.031213,463.1,111.3,2041.7,146.1,2519.4,239.8,457.3,2055.8,2547.4,140.2,69.9
0.033213,450.9,101.7,2060.3,164.2,2550.2,277.1,449.4,2058.7,2582.9,140,70.6
0.035213,435.9,101.5,2086.3,178.5,2593.8,355.9,440.6,2062.1,2623,139.8,71.1
0.037213,422.8,105.3,2103.5,160.0,2659.2,447.7,431.3,2066.1,2665.8,139.7,71.6
0.039213,413.0,104.5,2105.5,124.7,2739.3,514.5,422,2070.7,2709.7,139.6,71.9
0.041213,404.2,99.7,2105.4,96.7,2823.7,556.2,413,2075.7,2753,139.5,72.3
0.043213,393.4,98.2,2110.0,78.8,2904.0,539.3,404.7,2081.1,2793.9,139.4,72.6
0.045213,384.2,102.3,2113.8,71.1,2925.1,478.8,397.5,2086.7,2831.3,139.4,73
0.047213,380.7,112.2,2109.5,71.6,2892.4,432.4,391.7,2092.6,2863.8,139.4,73.5
0.049213,383.3,123.0,2097.7,75.4,2858.2,383.3,387.5,2098.4,2890.9,139.4,73.9
0.051213,387.9,124.1,2087.9,75.5,2852.4,333.6,384.8,2104.2,2912,139.4,74.4
0.053213,391.7,116.3,2085.8,72.3,2867.5,288.4,383.9,2109.8,2927,139.5,74.8
0.055213,394.5,110.4,2091.0,71.8,2889.0,250.8,384.5,2115,2936.2,139.6,75.2
0.057213,396.7,112.1,2099.6,78.0,2905.0,226.3,386.5,2119.8,2940.1,139.7,75.6
0.059213,398.5,115.6,2108.0,89.2,2913.3,214.4,389.7,2124,2939.5,139.8,75.9
0.061213,401.0,115.4,2112.1,99.0,2918.1,200.5,393.7,2127.6,2935.2,140,76.1
0.063213,404.9,117.6,2113.6,107.2,2925.5,176.8,398.4,2130.6,2928.3,140.2,76.4
0.065213,409.6,125.0,2116.2,116.6,2934.7,154.3,403.3,2133,2919.8,140.4,76.7
0.067213,413.1,127.8,2122.5,123.9,2939.9,144.5,408.1,2134.8,2910.6,140.6,77
0.069213,414.8,121.3,2131.7,129.5,2936.8,149.5,412.5,2136.1,2901.5,140.9,77.3
0.071213,415.1,112.1,2143.6,139.0,2921.8,172.3,416.4,2136.9,2893.2,141.1,77.6
0.073213,414.2,104.4,2155.4,151.5,2896.2,212.5,419.4,2137.5,2886.2,141.4,77.8
0.075213,413.0,96.0,2164.2,163.0,2872.2,267.3,421.4,2138,2880.5,141.7,78.1
0.077213,412.3,88.0,2170.5,178.2,2857.7,353.9,422.4,2138.6,2876.3,141.9,78.3
0.079213,412.0,85.5,2171.1,202.3,2852.0,481.5,422.4,2139.3,2873.4,142.2,78.5
0.081213,411.4,89.1,2157.0,225.3,2847.1,593.6,421.5,2140.4,2871.4,142.5,78.7
0.083213,411.3,99.0,2133.0,223.1,2852.8,591.6,419.7,2142,2869.7,142.7,78.8
0.085213,412.6,119.0,2120.5,200.4,2871.4,531.9,417.2,2144,2868,143,79
0.087213,414.2,143.8,2127.9,177.3,2890.4,485.4,414.4,2146.6,2865.6,143.2,79.1
0.089213,414.7,156.9,2145.4,158.9,2900.3,456.1,411.3,2149.7,2862.1,143.5,79.2
0.091213,414.1,153.2,2165.1,144.6,2895.8,435.6,408.2,2153.3,2857.1,143.7,79.2
0.093213,412.6,141.1,2178.9,138.3,2879.6,425.6,405.4,2157.2,2850.3,143.9,79.2
0.095213,410.5,130.4,2181.8,139.8,2863.8,428.1,403,2161.3,2841.6,144.1,79.1
0.097213,408.7,121.0,2172.8,145.4,2851.2,452.0,401.3,2165.4,2831.2,144.2,78.9
0.099213,407.7,112.4,2154.8,153.4,2833.6,516.1,400.3,2169.2,2819.3,144.4,78.7
0.101213,406.8,105.0,2138.4,167.2,2790.8,621.5,400.2,2172.6,2806.2,144.5,78.4
0.103213,405.7,98.9,2134.3,198.3,2717.8,664.3,401,2175.2,2792.5,144.7,78
0.105213,405.1,97.1,2147.0,249.5,2690.1,581.8,402.7,2176.9,2778.9,144.8,77.7
0.107213,405.0,102.8,2172.4,309.3,2699.1,513.4,405.2,2177.6,2765.8,144.9,77.4
0.109213,405.6,116.1,2198.0,378.3,2716.6,489.7,408.5,2177.1,2753.9,145,77.1
0.111213,407.6,133.5,2204.2,465.4,2734.9,490.5,412.4,2175.3,2743.8,145.1,76.9
0.113213,410.5,144.8,2172.7,586.7,2740.7,471.9,416.9,2172.2,2735.8,145.2,76.7
0.115213,413.7,142.8,2098.8,717.9,2739.6,425.9,421.7,2167.9,2730.1,145.3,76.8
0.117213,418.7,134.2,2053.8,821.3,2735.4,429.0,426.7,2162.6,2727,145.3,76.8
0.119213,426.3,128.9,2118.4,930.7,2715.8,556.1,431.8,2156.5,2726.4,145.4,77
0.121213,434.8,124.7,2325.8,784.1,2780.0,1059.9,436.8,2149.7,2727.8,145.5,77.1
0.123213,440.7,116.1,2306.1,566.7,2907.5,532.5,441.5,2142.7,2731.1,145.5,77.2
0.125213,445.0,106.2,2234.7,497.4,2841.6,304.8,445.9,2135.7,2735.7,145.6,77.2
0.127213,448.7,99.0,2148.3,365.0,2816.9,192.2,449.8,2129.1,2741,145.7,77.3
0.129213,452.3,97.7,2092.7,201.0,2802.1,158.4,453,2123.1,2746.3,145.7,77.2
0.131213,455.9,110.6,2074.2,113.0,2777.3,187.0,455.7,2118.1,2751.2,145.8,77.1
0.133213,459.3,140.7,2066.7,81.2,2718.9,258.1,457.6,2114.4,2755.1,145.9,76.9
0.135213,463.1,190.3,2060.3,69.3,2627.7,289.5,458.8,2112.1,2757.6,145.9,76.6
0.137213,470.6,247.7,2054.9,65.5,2577.7,274.0,459.1,2111.3,2758.5,146,76.2
