time,f1,b1,f2,b2,f3,b3,f1p,f2p,f3p,f0,intensity
0.025478,300.8,74.8,1542.0,113.3,2228.8,976.7,312.7,1520.4,2111.7,131.7,76.9
0.027478,314.6,91.3,1532.6,110.0,2207.5,979.7,319,1516.2,2119.6,131.4,76.7
0.029478,329.6,99.6,1515.2,94.8,2187.1,949.9,329.2,1509.3,2132.4,131.2,76.5
0.031478,344.1,103.6,1495.3,77.6,2152.3,877.8,342.8,1499.8,2149.5,130.9,76.4
0.033478,356.9,107.2,1478.0,64.7,2111.4,791.6,359.3,1488,2170.1,130.7,76.3
0.035478,370.8,111.4,1462.2,56.9,2085.8,712.5,378,1473.9,2193.1,130.4,76.1
0.037478,390.8,117.2,1446.5,55.1,2097.9,658.0,398.1,1458,2217.7,130.1,75.8
0.039478,422.6,120.6,1427.2,57.0,2149.7,606.2,418.9,1440.4,2242.7,129.7,75.5
0.041478,457.9,112.4,1406.5,56.9,2219.6,530.9,439.6,1421.4,2267.1,129.4,75.3
0.043478,482.9,97.2,1389.9,53.0,2281.9,453.3,459.4,1401.3,2289.9,129.1,75.1
0.045478,493.8,87.2,1379.1,50.7,2325.5,409.4,477.8,1380.4,2310.3,128.7,75
0.047478,499.9,83.7,1366.3,51.9,2359.6,382.3,494.1,1358.8,2327.7,128.4,74.9
0.049478,506.9,81.0,1346.4,53.1,2384.4,356.4,507.9,1336.9,2341.6,128,75
0.051478,514.0,73.7,1324.5,50.3,2395.7,346.4,519,1314.8,2351.8,127.7,75
0.053478,520.6,64.5,1302.0,46.6,2398.2,370.4,527.3,1292.6,2358.5,127.3,75.1
0.055478,526.0,58.4,1276.2,46.1,2389.3,444.4,532.8,1270.6,2361.7,126.9,75.2
0.057478,528.7,56.0,1247.1,48.3,2369.6,546.1,535.8,1248.9,2362.1,126.6,75.2
0.059478,527.8,54.8,1224.5,50.0,2364.4,602.7,536.5,1227.5,2360.3,126.2,75.2
0.061478,524.7,55.5,1209.3,53.7,2373.1,593.6,535.3,1206.6,2357,125.8,75
0.063478,521.2,62.3,1197.0,66.3,2375.0,547.1,532.7,1186.4,2353.1,125.5,74.8
0.065478,519.9,79.0,1178.4,94.7,2364.2,506.9,529.2,1166.9,2349.5,125.1,74.6
0.067478,521.5,99.1,1150.7,124.6,2350.7,489.4,525.4,1148.3,2347,124.8,74.5
0.069478,523.6,115.4,1122.3,142.8,2341.2,500.5,521.6,1130.7,2346.4,124.5,74.5
0.071478,525.7,126.2,1100.6,159.0,2330.3,544.1,518.4,1114.2,2348.4,124.1,74.6
0.073478,527.6,128.3,1083.2,174.1,2316.3,578.0,516.2,1098.9,2353.4,123.8,74.7
0.075478,527.2,119.7,1071.4,166.9,2311.9,556.1,515.2,1085.1,2361.8,123.5,74.7
0.077478,525.3,108.3,1065.9,139.6,2319.4,517.8,515.6,1072.7,2373.7,123.3,74.7
0.079478,524.2,103.6,1065.4,112.1,2341.1,505.5,517.6,1062,2388.8,123,74.5
0.081478,525.8,108.2,1065.7,97.7,2378.7,507.9,521.1,1052.9,2407,122.7,74.3
0.083478,530.1,111.5,1062.1,93.0,2432.3,507.8,526.1,1045.6,2427.7,122.5,74.2
0.085478,534.9,102.5,1053.0,94.4,2488.7,503.6,532.4,1039.9,2450.3,122.3,74.3
0.087478,540.2,87.3,1040.5,103.7,2531.4,508.8,539.9,1036,2474,122.1,74.5
0.089478,545.9,77.1,1031.0,115.3,2546.7,523.5,548.3,1033.6,2497.9,121.9,74.9
0.091478,551.0,71.7,1025.4,116.6,2552.4,538.9,557.3,1032.7,2521.1,121.7,75.1
0.093478,556.2,72.8,1022.3,111.4,2567.3,595.4,566.6,1033,2542.9,121.6,75.3
0.095478,564.5,86.2,1021.1,115.9,2582.0,737.2,576.1,1034.5,2562.3,121.5,75.3
0.097478,576.6,113.1,1021.9,140.3,2589.1,897.3,585.5,1036.7,2578.8,121.4,75.2
0.099478,590.9,142.6,1025.7,183.4,2594.2,1053.9,594.6,1039.5,2591.6,121.3,75
0.101478,603.2,159.3,1036.7,230.4,2583.4,1227.4,603.1,1042.7,2600.4,121.2,74.8
0.103478,615.3,165.3,1057.9,269.7,2555.6,1424.7,611.1,1045.9,2604.9,121.2,74.8
0.105478,624.5,162.8,1079.7,297.6,2568.9,1584.5,618.4,1049,2605,121.1,74.9
0.107478,625.6,150.9,1092.4,307.4,2588.2,207.5,624.9,1051.8,2601,121.1,75.1
0.109478,622.3,141.3,1088.7,293.8,2572.3,211.0,630.7,1054,2593.1,121.1,75.2
0.111478,623.6,147.6,1068.1,258.7,2566.3,192.5,635.8,1055.7,2581.7,121.2,75.3
0.113478,635.0,175.8,1044.6,223.1,2567.9,175.0,640.2,1056.8,2567.5,121.2,75.4
0.115478,653.5,215.3,1027.1,197.3,2567.3,171.4,644,1057.3,2551.1,121.2,75.5
0.117478,667.2,242.5,1019.0,180.0,2556.0,184.1,647.2,1057.2,2533.4,121.3,75.7
0.119478,672.6,248.3,1020.8,181.4,2534.0,213.2,649.8,1056.6,2515.2,121.3,76
0.121478,672.5,230.9,1030.8,199.7,2506.2,250.8,652,1055.6,2497.3,121.4,76.4
0.123478,664.7,191.6,1045.0,209.9,2482.0,264.9,653.8,1054.5,2480.6,121.4,76.8
0.125478,652.8,149.1,1053.9,193.1,2464.8,248.1,655.2,1053.3,2465.7,121.5,77.1
0.127478,644.3,119.0,1056.6,166.8,2452.6,217.8,656.2,1052.1,2453.5,121.6,77.3
0.129478,641.3,102.0,1061.0,150.9,2441.9,184.7,657,1051.2,2444.3,121.6,77.4
0.131478,643.8,97.8,1070.6,152.7,2435.3,154.6,657.4,1050.7,2438.6,121.7,77.3
0.133478,649.9,101.1,1083.1,164.7,2433.2,131.3,657.6,1050.4,2436.7,121.7,77.3
