time,f1,b1,f2,b2,f3,b3,f1p,f2p,f3p,f0,intensity
0.025603,676.1,50.7,1200.1,65.9,2658.8,37.0,687.2,1216,2674,108.5,72.5
0.027603,683.8,67.9,1207.3,76.7,2665.3,39.6,689.5,1218,2672.9,108.4,72.1
0.029603,693.5,90.5,1213.9,87.3,2669.9,45.6,693.2,1221.3,2671.2,108.3,71.6
0.031603,704.2,101.7,1221.3,89.6,2669.8,52.4,698.2,1225.6,2668.9,108.1,71.2
0.033603,716.7,99.6,1236.2,88.4,2665.6,63.6,704.3,1230.8,2666.5,108,70.8
0.035603,726.4,93.4,1258.6,90.5,2663.5,84.9,711.2,1236.6,2664,107.9,70.5
0.037603,730.2,86.0,1278.6,93.0,2670.2,117.1,718.6,1242.6,2661.7,107.8,70.4
0.039603,731.4,79.0,1283.5,92.4,2682.5,139.4,726.3,1248.6,2660,107.6,70.3
0.041603,734.9,75.6,1275.0,88.8,2685.7,142.7,734,1254.2,2658.9,107.5,70.2
0.043603,740.3,82.8,1261.6,86.4,2677.2,142.9,741.4,1259.3,2658.8,107.3,70
0.045603,744.2,109.7,1248.0,86.5,2665.1,144.1,748.1,1263.4,2659.6,107.2,69.8
0.047603,742.7,153.0,1237.7,83.0,2656.2,138.7,754,1266.6,2661.4,107.1,69.5
0.049603,738.3,182.6,1232.9,75.1,2652.5,123.6,758.9,1268.5,2664.2,107,69.3
0.051603,740.1,180.9,1235.0,70.6,2653.3,107.4,762.5,1269.2,2667.7,106.8,69.1
0.053603,749.0,163.8,1243.9,73.0,2656.2,100.0,764.7,1268.7,2671.9,106.7,69
0.055603,758.9,137.6,1257.0,79.6,2659.8,112.2,765.6,1267,2676.3,106.6,69
0.057603,764.2,114.7,1263.6,83.5,2663.8,140.4,765.1,1264.3,2680.5,106.5,69
0.059603,766.8,99.6,1263.3,85.7,2670.3,166.9,763.2,1260.7,2684.2,106.4,69
0.061603,768.6,91.2,1262.4,88.9,2676.0,176.9,760.1,1256.6,2686.9,106.3,68.9
0.063603,768.4,91.0,1263.9,92.8,2674.0,169.5,756,1252.1,2688.1,106.2,68.7
0.065603,763.6,96.8,1263.3,92.0,2670.2,155.0,751,1247.6,2687.3,106.2,68.5
0.067603,756.8,99.2,1256.8,85.7,2672.0,140.5,745.3,1243.3,2684.3,106.1,68.2
0.069603,752.8,97.9,1248.5,81.0,2679.1,130.3,739.1,1239.5,2678.7,106,67.9
0.071603,750.1,102.5,1245.3,85.5,2689.1,136.0,732.8,1236.3,2670.2,106,67.6
0.073603,743.1,119.3,1254.8,101.8,2699.9,178.1,726.5,1234,2658.9,106,67.3
0.075603,726.6,136.1,1269.3,117.7,2709.8,280.9,720.5,1232.7,2644.6,105.9,67.1
0.077603,710.1,137.2,1268.7,122.9,2703.1,447.0,714.8,1232.3,2627.6,105.9,66.9
0.079603,702.1,131.5,1251.0,120.5,2650.6,574.8,709.8,1233,2608.1,105.9,67
0.081603,694.1,132.9,1226.6,116.8,2608.0,625.7,705.5,1234.6,2586.5,105.9,67.1
0.083603,680.2,136.0,1205.0,109.2,2570.3,788.6,701.9,1236.9,2563.2,105.9,67.4
0.085603,672.8,129.1,1196.2,97.2,2472.7,904.5,699.2,1239.7,2539,105.9,67.7
0.087603,679.9,118.1,1199.1,89.1,2440.1,794.2,697.2,1242.9,2514.3,105.9,68
0.089603,693.0,114.6,1209.7,91.8,2431.4,611.4,696,1246.1,2489.8,105.9,68.2
0.091603,704.4,123.1,1229.0,113.1,2410.6,448.1,695.3,1249.1,2466.1,105.9,68.4
0.093603,709.7,136.7,1256.8,154.8,2399.8,346.0,695.1,1251.6,2443.9,105.9,68.6
0.095603,707.5,139.0,1276.5,193.3,2399.1,299.5,695.2,1253.3,2423.7,105.9,68.7
0.097603,701.5,131.4,1278.5,214.7,2400.3,272.9,695.4,1254.1,2405.9,105.9,68.8
0.099603,693.2,119.9,1264.0,219.1,2404.8,252.7,695.5,1253.8,2391,105.9,68.9
0.101603,684.6,106.2,1239.2,214.4,2417.4,237.8,695.3,1252.3,2379,105.9,69
0.103603,683.0,94.6,1223.4,208.0,2432.6,234.2,694.6,1249.5,2370.1,105.9,69
0.105603,687.4,85.5,1222.9,202.5,2431.3,254.2,693.2,1245.4,2364.3,105.9,68.8
0.107603,690.3,79.8,1226.9,210.8,2396.6,285.1,691,1240.3,2361.3,105.9,68.4
0.109603,692.5,80.2,1243.8,220.4,2357.6,255.2,687.8,1234.1,2360.8,105.9,67.8
0.111603,696.1,100.0,1273.7,204.9,2349.4,200.2,683.5,1227.2,2362.5,105.9,67
0.113603,697.8,177.3,1283.9,187.6,2355.3,159.8,678.1,1219.7,2365.9,105.8,66.1
0.115603,690.3,360.6,1265.3,185.2,2366.5,133.5,671.5,1212,2370.3,105.8,65.4
0.117603,665.0,534.5,1232.3,178.1,2377.0,111.3,663.8,1204.3,2375.4,105.8,65
0.119603,642.5,451.2,1201.7,170.2,2382.4,94.2,655.1,1197,2380.5,105.7,64.9
0.121603,632.8,336.0,1168.7,171.4,2381.1,84.6,645.3,1190.2,2385.1,105.7,64.9
0.123603,630.6,277.1,1144.0,179.4,2374.6,83.2,634.7,1184.3,2388.8,105.6,64.9
0.125603,633.3,251.8,1138.4,186.5,2371.6,89.5,623.4,1179.3,2391.2,105.6,64.7
0.127603,634.2,247.5,1149.7,178.1,2377.6,106.1,611.6,1175.5,2392.1,105.5,64.3
0.129603,622.2,262.2,1161.8,148.9,2390.3,137.5,599.5,1172.8,2391.4,105.5,63.8
0.131603,590.4,283.5,1164.6,114.1,2401.3,181.0,587.3,1171.4,2389,105.4,63.2
0.133603,559.9,285.3,1162.2,93.7,2398.3,218.9,575.2,1171,2385,105.4,62.6
0.135603,537.8,283.9,1160.0,86.4,2381.8,257.1,563.4,1171.7,2379.6,105.3,62
0.137603,517.2,288.4,1160.4,89.8,2354.4,297.1,552.2,1173.2,2373.2,105.3,61.4
0.139603,500.7,278.5,1167.4,106.2,2329.3,295.1,541.7,1175.3,2366.1,105.2,60.9
0.141603,502.1,236.2,1181.0,132.1,2327.6,262.7,532.2,1177.9,2358.7,105.2,60.3
0.143603,514.7,193.3,1193.7,158.3,2337.5,244.1,523.9,1180.5,2351.5,105.2,59.8
0.145603,529.4,173.3,1202.1,181.2,2352.3,245.2,516.8,1183.1,2344.9,105.1,59.2
0.147603,542.1,178.4,1206.9,199.2,2369.1,269.5,511.2,1185.4,2339.4,105.1,58.7
0.149603,544.0,209.1,1203.2,201.5,2372.0,309.8,507.1,1187.1,2335.1,105,58.2
0.151603,526.9,258.7,1190.7,192.3,2348.4,321.6,504.6,1188.3,2332.4,105,57.7
0.153603,498.1,308.6,1177.7,187.2,2325.9,285.7,503.8,1188.6,2331.5,105,57.1
