time,f1,b1,f2,b2,f3,b3,f1p,f2p,f3p,f0,intensity
0.025669,560.2,44.4,1668.0,87.5,2428.6,80.5,616.4,1568,2413.8,0,77.6
0.027669,578.4,51.3,1647.3,80.0,2429.2,76.5,617.6,1565.9,2412.8,0,77.3
0.029669,595.5,59.1,1624.5,79.3,2425.9,71.0,619.4,1562.4,2411.1,0,76.9
0.031669,606.7,66.2,1594.1,85.8,2420.3,65.8,621.9,1557.7,2408.8,0,76.6
0.033669,613.2,70.3,1551.2,92.8,2413.6,59.5,625.2,1551.7,2406.1,0,76.4
0.035669,618.3,71.7,1512.8,92.2,2407.1,54.4,629.1,1544.5,2402.8,0,76.3
0.037669,625.3,78.0,1488.3,88.5,2397.8,53.7,633.5,1536.3,2399.3,0,76.2
0.039669,635.5,96.4,1473.1,85.2,2384.9,56.3,638.6,1527.1,2395.6,0,76.2
0.041669,648.1,123.7,1462.7,82.7,2373.9,59.0,644.1,1517.1,2391.8,0,76.1
0.043669,666.0,154.6,1454.3,81.6,2366.1,62.0,650.1,1506.3,2388.1,0,76.1
0.045669,687.8,184.6,1446.9,82.2,2360.9,65.0,656.5,1494.9,2384.7,0,76.1
0.047669,709.8,218.9,1438.1,81.2,2357.3,65.6,663.3,1483.1,2381.6,0,76.2
0.049669,720.1,240.6,1429.3,77.8,2355.1,63.2,670.2,1471,2379.1,0,76.3
0.051669,715.5,224.4,1422.9,76.9,2353.8,61.2,677.4,1458.7,2377.2,0,76.5
0.053669,707.2,179.0,1420.5,87.2,2354.8,63.7,684.6,1446.4,2376.2,0,76.8
0.055669,705.1,142.1,1421.7,110.2,2360.2,72.0,692,1434.1,2376.1,73.7,77.1
0.057669,707.6,116.3,1425.2,138.6,2371.4,85.8,699.2,1422.1,2377.1,74.1,77.3
0.059669,712.1,100.4,1430.0,159.5,2386.8,105.5,706.4,1410.3,2379.2,74.7,77.4
0.061669,717.3,92.9,1435.2,175.4,2407.4,139.5,713.5,1399,2382.6,75.3,77.4
0.063669,723.0,98.0,1433.4,188.1,2429.1,188.9,720.3,1388.2,2387.2,76,77.4
0.065669,731.0,118.9,1417.4,195.1,2443.0,240.6,726.8,1378,2393.2,76.8,77.4
0.067669,740.4,149.6,1392.7,190.0,2443.1,261.6,733,1368.4,2400.6,77.7,77.4
0.069669,745.1,165.4,1374.2,173.2,2441.8,249.5,738.8,1359.6,2409.2,78.7,77.4
0.071669,745.3,159.7,1361.6,150.7,2445.0,229.7,744.1,1351.4,2419.2,79.9,77.4
0.073669,745.8,145.7,1351.5,131.7,2449.7,217.3,749,1343.9,2430.4,81.2,77.4
0.075669,749.0,135.2,1341.7,119.9,2455.2,214.7,753.4,1337.1,2442.8,82.7,77.3
0.077669,753.0,130.8,1333.2,117.0,2462.9,217.3,757.2,1331.1,2456.3,84.3,77.2
0.079669,754.3,130.1,1327.4,125.0,2469.7,215.4,760.6,1325.7,2470.8,86,77.1
0.081669,753.0,130.3,1321.2,144.7,2472.4,208.8,763.3,1320.9,2486.1,87.9,77.2
0.083669,752.4,129.6,1313.3,165.4,2473.7,204.5,765.6,1316.7,2502.1,89.9,77.4
0.085669,753.6,126.3,1305.7,178.8,2476.8,204.9,767.2,1313,2518.7,92.1,77.6
0.087669,755.2,121.4,1302.8,182.9,2481.3,210.6,768.4,1309.8,2535.6,94.4,77.9
0.089669,754.8,116.8,1305.3,180.5,2490.2,221.1,769,1306.9,2552.8,96.8,78.1
0.091669,751.8,114.5,1309.0,173.4,2512.4,235.6,769.1,1304.2,2570,99.2,78.2
0.093669,749.0,116.0,1308.0,164.6,2549.9,251.6,768.8,1301.8,2587.1,101.8,78.3
0.095669,749.1,121.6,1300.6,156.0,2598.2,269.6,768.1,1299.6,2603.9,104.4,78.4
0.097669,752.3,127.3,1291.2,150.1,2637.9,290.0,767,1297.3,2620.3,107.1,78.4
0.099669,756.6,128.1,1283.6,147.3,2662.5,321.3,765.6,1295.1,2636.1,0,78.4
0.101669,759.8,122.9,1279.2,146.8,2674.6,371.5,763.9,1292.8,2651.2,112.4,78.4
0.103669,760.4,115.2,1278.9,147.2,2682.5,425.7,761.9,1290.3,2665.5,115,78.4
0.105669,759.0,107.2,1282.3,150.1,2700.6,459.3,759.8,1287.7,2678.9,117.6,78.4
0.107669,757.4,101.3,1288.4,160.3,2731.8,445.5,757.6,1284.9,2691.3,120.2,78.4
0.109669,756.7,96.9,1294.2,178.5,2754.6,374.2,755.3,1281.8,2702.6,122.6,78.5
0.111669,756.2,92.1,1292.7,191.3,2748.0,340.3,753,1278.5,2712.8,125,78.6
0.113669,755.1,85.9,1280.8,187.9,2739.7,358.5,750.7,1275,2722,127.2,78.7
0.115669,753.6,78.6,1263.9,169.8,2720.6,404.6,748.6,1271.2,2730,129.3,78.8
0.117669,751.9,72.4,1252.5,151.0,2701.8,444.5,746.5,1267.2,2736.9,131.3,78.9
0.119669,750.7,67.8,1248.2,139.0,2694.8,486.1,744.7,1263,2742.7,133.1,79
0.121669,750.8,66.8,1249.3,138.5,2720.3,545.8,743,1258.6,2747.5,134.8,79.1
0.123669,752.1,70.1,1253.4,148.9,2777.1,150.6,741.7,1254.2,2751.4,136.3,79.2
0.125669,752.9,73.9,1254.3,156.6,2770.7,124.6,740.6,1249.7,2754.5,137.7,79.2
0.127669,753.0,76.4,1249.1,154.9,2767.8,116.5,739.8,1245.2,2756.7,139,79.2
0.129669,753.2,78.3,1241.5,146.6,2765.2,121.4,739.3,1240.7,2758.3,140.1,79.3
0.131669,753.3,78.5,1236.1,136.0,2763.1,133.3,739.1,1236.4,2759.2,141,79.4
0.133669,753.3,77.2,1232.3,126.3,2760.7,146.6,739.2,1232.3,2759.7,141.8,79.4
0.135669,753.1,76.1,1229.5,120.1,2759.2,154.1,739.6,1228.4,2759.8,142.5,79.5
0.137669,752.6,75.8,1227.4,116.6,2759.6,150.8,740.3,1224.8,2759.6,143.1,79.6
0.139669,751.9,76.8,1226.0,116.3,2760.5,131.1,741.3,1221.5,2759.2,143.6,79.7
0.141669,751.3,77.9,1223.9,117.6,2759.5,108.2,742.5,1218.6,2758.7,144,79.7
0.143669,750.3,76.7,1220.2,116.5,2756.9,91.3,744,1216.1,2758.1,144.3,79.7
0.145669,748.6,72.8,1216.5,111.7,2754.5,83.8,745.5,1214,2757.5,144.5,79.7
0.147669,746.6,68.1,1213.5,106.3,2753.0,84.6,747.2,1212.3,2756.8,144.7,79.7
0.149669,745.2,65.9,1212.0,104.8,2751.9,89.7,749,1211,2756.3,144.8,79.7
0.151669,744.7,67.2,1212.7,108.8,2751.5,90.0,750.8,1210.1,2755.8,144.8,79.7
0.153669,744.6,70.0,1214.1,115.4,2749.7,86.9,752.5,1209.6,2755.3,144.8,79.6
0.155669,744.0,71.9,1213.7,120.0,2744.0,88.8,754.1,1209.3,2754.8,144.8,79.6
0.157669,742.8,74.6,1211.5,123.7,2735.7,94.0,755.5,1209.4,2754.2,144.7,79.5
0.159669,742.1,78.7,1209.9,128.4,2729.4,94.9,756.8,1209.6,2753.6,144.6,79.4
0.161669,742.2,83.9,1209.4,134.5,2724.8,94.1,757.7,1210,2752.7,144.4,79.3
0.163669,742.9,89.9,1209.2,140.8,2721.9,95.0,758.3,1210.3,2751.6,144.3,79.2
0.165669,743.4,96.8,1209.3,146.7,2722.8,95.2,758.5,1210.7,2750.1,144.1,79.1
0.167669,743.7,104.3,1209.8,153.0,2729.5,95.6,758.2,1210.9,2748.2,143.9,79.1
0.169669,744.1,112.6,1210.5,161.3,2740.0,99.1,757.5,1210.8,2745.6,143.6,79
0.171669,744.1,120.8,1210.1,170.1,2751.6,104.4,756.2,1210.4,2742.4,143.4,79
0.173669,743.2,125.3,1208.3,177.1,2759.4,108.5,754.4,1209.6,2738.4,143.1,79
0.175669,741.7,127.5,1204.8,184.0,2761.8,117.5,752,1208.2,2733.4,142.9,79
0.177669,739.4,128.7,1198.8,187.9,2758.5,137.1,748.9,1206.3,2727.5,142.6,79.1
0.179669,736.6,128.3,1193.0,184.3,2753.3,156.1,745.3,1203.7,2720.5,142.3,79.1
0.181669,734.2,127.1,1189.4,174.5,2751.0,172.3,741,1200.3,2712.4,142,79.2
0.183669,733.5,128.7,1188.3,165.5,2751.1,195.1,736.1,1196.1,2703.1,141.7,79.3
0.185669,733.0,133.2,1186.1,156.1,2748.6,232.0,730.5,1191.1,2692.6,141.3,79.4
0.187669,731.3,136.2,1181.4,144.1,2736.2,275.7,724.4,1185.2,2680.8,141,79.6
0.189669,729.1,139.6,1175.8,134.1,2705.1,332.0,717.8,1178.5,2667.8,140.7,79.6
0.191669,726.4,145.9,1170.1,130.2,2648.4,398.8,710.6,1170.9,2653.6,140.3,79.6
0.193669,721.5,150.1,1165.5,129.9,2596.6,437.0,703,1162.5,2638.2,139.9,79.5
0.195669,713.8,147.8,1162.2,130.1,2575.0,443.4,695,1153.3,2621.9,139.6,79.3
0.197669,704.7,140.9,1159.8,131.6,2576.4,424.8,686.6,1143.4,2604.5,139.2,79
0.199669,694.0,134.6,1156.7,139.0,2574.1,397.7,677.9,1132.9,2586.3,138.8,78.6
0.201669,682.2,132.3,1151.8,160.1,2562.2,370.2,669.1,1121.8,2567.5,138.4,78.2
0.203669,672.3,138.1,1143.3,202.9,2544.7,344.1,660.1,1110.3,2548.1,138,77.7
0.205669,665.8,157.3,1123.5,285.2,2514.9,320.3,651.1,1098.4,2528.4,137.6,77.3
0.207669,663.5,185.3,1087.6,385.1,2481.2,296.5,642.2,1086.4,2508.6,137.2,76.8
0.209669,660.6,211.0,1045.5,452.6,2454.6,267.5,633.3,1074.4,2488.9,136.7,76.4
0.211669,651.5,226.8,1019.2,458.7,2435.0,235.1,624.7,1062.4,2469.4,136.3,75.9
0.213669,635.4,236.4,1008.8,426.7,2413.2,194.7,616.5,1050.7,2450.5,135.9,75.4
0.215669,613.5,239.2,1011.2,376.8,2391.7,150.5,608.6,1039.3,2432.3,135.5,74.9
0.217669,590.7,238.5,1018.1,334.5,2378.3,119.7,601.1,1028.5,2415,135.1,74.2
0.219669,565.4,240.7,1021.0,307.2,2369.4,104.4,594.3,1018.5,2399,134.7,73.6
0.221669,543.5,240.2,1017.2,299.1,2362.7,102.7,588,1009.2,2384.2,134.3,72.9
0.223669,533.6,232.9,1004.7,304.1,2358.8,108.6,582.4,1000.9,2371.1,133.9,72.2
0.225669,539.3,228.8,983.2,305.5,2360.4,115.5,577.6,993.6,2359.6,133.5,71.5
0.227669,552.9,233.4,962.3,283.8,2366.9,123.4,573.6,987.6,2350.1,133.1,70.6
0.229669,564.4,237.3,963.0,231.8,2375.0,139.9,570.5,982.7,2342.5,132.8,69.7
0.231669,570.6,237.4,984.0,179.7,2380.9,168.8,568.2,979.3,2337,132.4,68.6
0.233669,580.6,245.7,1009.6,147.6,2388.7,210.7,566.8,977.1,2333.7,132.1,67.5
0.235669,602.1,264.1,1031.8,141.1,2403.5,260.6,566.3,976.4,2332.5,131.8,66.2
