time,f1,b1,f2,b2,f3,b3,f1p,f2p,f3p,f0,intensity
0.025537,457.0,130.9,1149.0,177.4,2279.4,53.4,460.6,1219.7,2295.3,212.1,77.4
0.027537,459.9,117.3,1190.7,212.9,2278.7,48.6,460.7,1227.7,2292.7,212.4,77.4
0.029537,461.0,102.2,1240.7,219.4,2279.8,47.7,460.9,1240.8,2288.4,212.7,77.4
0.031537,461.7,93.6,1279.8,204.6,2283.2,51.4,461,1258.8,2282.7,213,77.5
0.033537,462.5,90.9,1305.7,191.8,2287.3,61.7,461.2,1281.1,2275.7,213.3,77.6
0.035537,463.3,90.8,1329.5,189.7,2289.5,82.5,461.1,1307.2,2267.8,213.7,77.7
0.037537,463.5,91.2,1356.5,199.6,2284.0,111.3,460.9,1336.5,2259.3,214,77.8
0.039537,462.8,88.6,1387.7,215.9,2267.6,135.3,460.5,1368.4,2250.4,214.4,77.9
0.041537,461.1,81.5,1420.8,230.5,2246.2,144.0,459.7,1402,2241.5,214.7,78
0.043537,458.4,70.8,1458.1,237.3,2225.1,141.2,458.7,1436.8,2232.9,215.1,78.1
0.045537,455.4,59.3,1494.8,227.6,2208.8,131.3,457.3,1472,2225,215.4,78.2
0.047537,452.8,50.0,1526.0,202.4,2199.1,116.5,455.6,1506.9,2217.9,215.8,78.3
0.049537,451.1,44.5,1550.0,174.6,2197.3,99.6,453.7,1541,2211.9,216.2,78.4
0.051537,449.7,41.8,1570.1,150.2,2200.4,81.3,451.7,1573.5,2207.2,216.5,78.5
0.053537,448.2,40.2,1585.6,133.0,2203.8,65.1,449.5,1604.2,2203.7,216.9,78.6
0.055537,446.7,38.7,1599.4,126.3,2205.9,54.4,447.4,1632.6,2201.6,217.2,78.7
0.057537,445.4,37.5,1614.9,131.9,2207.2,49.8,445.4,1658.4,2200.9,217.6,78.8
0.059537,444.4,36.0,1637.0,151.9,2208.2,49.0,443.7,1681.5,2201.3,217.9,78.9
0.061537,443.6,33.4,1667.3,186.6,2208.7,51.6,442.2,1701.7,2202.9,218.2,79
0.063537,443.0,29.9,1703.6,227.6,2208.9,56.7,441.1,1719.1,2205.3,218.6,79.1
0.065537,442.4,25.8,1742.6,259.7,2209.4,63.8,440.5,1733.7,2208.4,218.9,79.2
0.067537,442.0,21.7,1772.2,264.2,2211.4,70.4,440.2,1745.7,2212,219.2,79.3
0.069537,442.0,18.1,1788.4,246.6,2215.1,74.8,440.3,1755.2,2215.8,219.5,79.4
0.071537,442.2,15.3,1793.8,223.2,2219.9,77.0,440.8,1762.5,2219.7,219.7,79.5
0.073537,442.6,13.3,1792.1,201.9,2224.8,78.4,441.5,1767.9,2223.3,220,79.6
0.075537,442.8,12.1,1786.2,186.6,2228.3,80.3,442.4,1771.5,2226.6,220.3,79.7
0.077537,442.7,11.3,1779.2,175.8,2229.7,82.6,443.4,1773.7,2229.3,220.5,79.7
0.079537,442.5,10.5,1773.2,167.7,2229.3,84.5,444.4,1774.6,2231.5,220.7,79.8
0.081537,442.5,9.8,1769.1,162.6,2228.7,85.9,445.2,1774.4,2232.9,221,79.9
0.083537,442.9,9.2,1767.8,162.4,2229.1,87.5,445.9,1773.3,2233.8,221.2,79.9
0.085537,443.5,9.0,1768.1,165.7,2230.4,88.5,446.3,1771.4,2234,221.4,80
0.087537,444.2,9.1,1767.6,169.7,2231.6,87.6,446.4,1768.8,2233.7,221.6,80.1
0.089537,445.0,9.5,1764.3,173.9,2232.2,84.6,446.3,1765.6,2233,221.8,80.1
0.091537,445.7,10.0,1758.2,178.8,2232.3,81.2,446,1761.8,2232.1,222,80.2
0.093537,446.1,10.6,1750.3,183.7,2232.2,78.7,445.5,1757.3,2231,222.2,80.2
0.095537,446.3,10.9,1741.4,184.6,2232.0,76.5,445.1,1752.3,2230,222.4,80.2
0.097537,446.8,10.9,1731.7,177.3,2232.1,73.2,444.7,1746.6,2229.1,222.5,80.2
0.099537,447.5,10.6,1722.9,160.6,2232.2,67.9,444.5,1740.2,2228.6,222.7,80.2
0.101537,448.3,10.2,1717.3,140.4,2232.1,62.2,444.7,1733.2,2228.6,222.8,80.1
0.103537,449.2,10.1,1715.5,121.9,2232.2,57.6,445.3,1725.6,2229.1,223,80
0.105537,449.9,10.4,1716.3,109.9,2232.7,55.7,446.4,1717.4,2230.3,223.1,79.8
0.107537,450.3,11.2,1716.5,104.2,2233.1,56.9,448.1,1708.7,2232,223.3,79.5
0.109537,450.8,12.3,1714.4,103.8,2233.4,61.1,450.3,1699.7,2234.3,223.4,79.3
0.111537,451.6,13.9,1709.2,107.1,2234.5,67.8,453.1,1690.4,2237.1,223.5,78.9
0.113537,453.3,16.3,1701.7,111.6,2237.8,74.0,456.3,1681.1,2240.3,223.7,78.5
0.115537,455.9,19.3,1693.0,115.9,2242.6,76.3,459.9,1672,2243.8,223.8,78
0.117537,458.8,22.8,1683.1,120.3,2246.2,75.3,463.7,1663.2,2247.4,223.9,77.5
0.119537,461.7,27.2,1670.0,125.1,2247.7,73.1,467.5,1655,2251,224,76.9
0.121537,464.4,32.2,1653.1,128.6,2247.4,70.5,471.1,1647.7,2254.4,224.1,76.3
0.123537,467.3,38.6,1634.4,131.0,2247.3,68.9,474.4,1641.3,2257.5,224.2,75.6
0.125537,471.2,47.6,1619.4,138.1,2249.5,71.5,477.1,1636.2,2260,224.3,74.8
0.127537,477.6,63.4,1610.9,160.6,2256.4,84.6,479.2,1632.4,2261.9,224.3,74
0.129537,487.5,88.7,1612.3,207.2,2269.6,115.1,480.5,1630,2263.1,224.4,73.1
0.131537,501.8,124.0,1625.9,282.1,2291.1,171.3,480.9,1629.2,2263.5,224.5,72.3
