time,f1,b1,f2,b2,f3,b3,f1p,f2p,f3p,f0,intensity
0.025206,420.3,180.0,1771.1,272.8,2360.3,170.6,427.4,1716,2324.8,159.6,79.4
0.027206,423.0,175.6,1753.6,261.4,2339.6,160.0,426.9,1714,2324.4,159.9,79.5
0.029206,423.9,165.6,1731.5,241.6,2322.9,152.4,426.2,1710.5,2323.8,160.2,79.7
0.031206,423.7,153.3,1709.3,216.7,2311.1,146.6,425.2,1705.6,2323,160.6,79.9
0.033206,423.0,142.5,1692.7,192.9,2305.7,138.8,424.2,1699.1,2322.2,161,80.2
0.035206,422.2,133.6,1677.6,173.2,2301.3,125.3,423.2,1691,2321.4,161.4,80.5
0.037206,421.6,126.9,1663.4,160.4,2296.7,110.3,422.3,1681.3,2320.8,161.8,80.8
0.039206,421.0,123.4,1652.9,156.3,2297.8,98.6,421.6,1669.8,2320.6,162.3,81.1
0.041206,420.7,123.3,1644.6,159.4,2306.9,90.7,421.3,1656.6,2320.8,162.7,81.4
0.043206,422.0,123.1,1634.8,163.1,2318.7,84.9,421.6,1641.5,2321.5,163.2,81.7
0.045206,425.5,119.9,1620.1,164.7,2329.8,82.4,422.4,1624.6,2322.9,163.8,82
0.047206,430.5,116.3,1600.1,164.7,2340.4,87.1,423.9,1605.9,2325,164.3,82.3
0.049206,435.8,115.9,1576.6,161.1,2353.0,100.5,426.2,1585.4,2327.9,164.9,82.5
0.051206,440.5,119.2,1552.1,153.2,2364.2,116.4,429.3,1563.2,2331.5,165.5,82.7
0.053206,444.1,122.6,1523.6,146.7,2360.5,120.9,433.2,1539.5,2335.8,166.1,82.9
0.055206,446.0,119.6,1491.0,142.7,2344.9,109.9,437.9,1514.5,2340.9,166.7,83.1
0.057206,447.3,109.9,1458.8,137.8,2335.1,95.9,443.3,1488.4,2346.5,167.4,83.2
0.059206,449.4,98.9,1434.4,133.1,2336.3,92.3,449.3,1461.4,2352.5,168.1,83.3
0.061206,452.8,90.2,1414.7,128.9,2345.7,101.4,455.9,1433.9,2358.9,168.7,83.4
0.063206,456.6,82.9,1392.1,122.9,2361.8,120.7,462.7,1406.1,2365.4,169.5,83.4
0.065206,460.5,75.0,1363.6,114.6,2380.0,142.1,469.8,1378.4,2371.9,170.2,83.5
0.067206,465.0,67.8,1334.6,107.7,2392.1,153.9,476.9,1351.1,2378.2,170.9,83.5
0.069206,471.4,61.8,1307.5,107.4,2395.3,157.1,483.7,1324.5,2384.1,171.7,83.4
0.071206,479.4,58.4,1286.8,119.0,2389.8,156.7,490.2,1299,2389.6,172.5,83.4
0.073206,488.2,57.2,1273.9,144.3,2381.0,158.3,496.1,1274.9,2394.4,173.3,83.4
0.075206,496.7,56.7,1270.5,179.6,2376.0,167.1,501.2,1252.3,2398.5,174.1,83.4
0.077206,504.2,56.4,1278.3,213.7,2379.9,185.7,505.4,1231.6,2401.9,174.9,83.3
0.079206,510.4,57.1,1292.9,236.3,2393.8,210.8,508.6,1212.8,2404.6,175.7,83.3
0.081206,515.0,60.3,1303.5,249.7,2410.4,230.4,510.7,1196.2,2406.6,176.6,83.2
0.083206,519.0,68.0,1299.5,261.4,2420.7,241.2,511.6,1181.6,2408,177.4,83.1
0.085206,521.7,81.2,1271.5,266.6,2420.6,249.1,511.2,1169.2,2409,178.3,83
0.087206,522.1,97.5,1224.0,253.9,2416.5,257.4,509.7,1158.8,2409.8,179.1,82.8
0.089206,519.4,111.2,1172.1,224.2,2414.8,264.0,507.1,1150.4,2410.5,180,82.5
0.091206,513.7,119.8,1125.2,194.4,2414.4,264.9,503.4,1143.6,2411.3,180.9,82.2
0.093206,505.1,128.0,1084.8,178.2,2409.8,254.4,498.8,1138.4,2412.6,181.7,81.9
0.095206,492.5,143.7,1045.7,175.6,2401.6,228.5,493.4,1134.5,2414.5,182.6,81.7
0.097206,477.0,167.1,1014.9,182.6,2399.0,202.8,487.4,1131.6,2417.3,183.5,81.5
0.099206,463.1,189.3,999.4,197.5,2403.8,193.8,481.1,1129.4,2421.1,184.3,81.4
0.101206,456.0,202.6,1000.1,227.4,2413.5,202.9,474.5,1127.6,2426.1,185.2,81.5
0.103206,456.3,204.5,1016.0,280.8,2427.7,223.3,468,1126,2432.3,186,81.6
0.105206,459.5,192.9,1048.3,354.5,2448.1,240.0,461.7,1124.3,2439.9,186.9,81.7
0.107206,460.4,172.1,1090.9,420.3,2470.1,229.3,455.8,1122.3,2448.7,187.7,81.8
0.109206,458.1,149.4,1135.5,456.7,2486.6,186.3,450.4,1119.8,2458.7,188.5,81.9
0.111206,454.0,131.3,1166.0,454.3,2495.8,137.5,445.7,1116.7,2469.7,189.3,81.9
0.113206,449.5,117.9,1177.6,433.6,2502.7,103.1,441.8,1112.9,2481.3,190.1,81.8
0.115206,445.5,108.0,1176.5,415.9,2509.2,85.1,438.8,1108.4,2493.3,190.9,81.7
0.117206,442.4,101.5,1171.6,405.3,2514.4,76.7,436.8,1103.2,2505.2,191.6,81.6
0.119206,440.2,97.9,1167.5,396.7,2518.3,71.7,435.6,1097.4,2516.6,192.4,81.5
0.121206,438.7,96.5,1162.2,386.6,2522.3,67.4,435.4,1091.1,2527.1,193.1,81.3
0.123206,438.2,96.9,1149.2,372.7,2527.2,65.5,436,1084.6,2536.1,193.8,81.2
0.125206,438.2,97.0,1125.4,346.1,2533.6,69.5,437.4,1078,2543.2,194.5,81
0.127206,438.9,95.8,1099.3,308.7,2539.8,80.3,439.4,1071.5,2547.8,195.2,80.9
0.129206,440.5,94.3,1078.9,274.0,2543.2,95.3,441.9,1065.5,2549.5,195.9,80.7
0.131206,442.3,93.7,1064.0,245.4,2542.6,114.1,444.8,1060.1,2547.9,196.5,80.5
0.133206,443.5,95.0,1052.3,219.5,2536.8,140.4,447.9,1055.5,2542.7,197.2,80.3
0.135206,443.8,98.8,1041.3,189.4,2519.0,175.1,451.1,1052,2533.7,197.8,80.1
0.137206,443.4,104.3,1031.4,156.2,2489.5,193.0,454.3,1049.8,2520.7,198.4,79.8
0.139206,443.0,108.9,1023.1,122.2,2458.4,188.5,457.3,1049,2503.7,199,79.5
0.141206,443.6,110.7,1017.8,90.3,2431.1,164.7,459.9,1049.6,2483,199.5,79.3
0.143206,446.0,111.3,1017.1,63.6,2414.0,130.5,462.2,1051.7,2458.6,200.1,79
0.145206,450.5,113.5,1020.5,44.7,2405.2,102.6,464,1055.3,2430.9,200.6,78.7
0.147206,457.9,119.9,1026.4,31.6,2397.6,82.7,465.4,1060.2,2400.5,201,78.5
0.149206,468.5,134.5,1033.4,24.8,2388.3,72.5,466.2,1066.4,2367.9,201.5,78.3
0.151206,480.9,161.1,1041.2,22.7,2376.1,73.8,466.6,1073.6,2333.7,201.9,78.2
0.153206,491.5,198.7,1049.6,23.9,2361.7,90.1,466.5,1081.6,2298.7,202.3,78.1
0.155206,496.7,240.2,1058.6,27.4,2345.8,127.8,466,1090.2,2263.7,202.6,78
0.157206,497.0,278.4,1067.6,33.0,2328.8,192.9,465.3,1099,2229.6,203,77.9
0.159206,494.4,317.2,1077.1,43.0,2304.2,301.0,464.3,1107.7,2197,203.3,77.7
0.161206,489.3,349.5,1087.2,59.9,2254.4,432.8,463.2,1116,2166.9,203.5,77.5
0.163206,481.9,368.5,1100.1,87.8,2169.9,534.2,462,1123.7,2140,203.8,77.2
0.165206,473.3,373.7,1121.7,128.9,2080.2,598.3,460.9,1130.4,2116.9,204,76.8
0.167206,461.8,365.0,1155.8,167.8,2018.0,666.8,460,1135.8,2098.4,204.2,76.4
0.169206,443.5,353.6,1191.3,178.5,1999.1,766.9,459.2,1139.9,2084.7,204.3,76.1
0.171206,419.1,346.3,1216.8,169.4,2008.4,892.0,458.8,1142.4,2076.4,204.5,75.9
0.173206,391.4,331.6,1246.0,165.7,2005.5,1058.2,458.6,1143.2,2073.6,204.6,75.7
