time,f1,b1,f2,b2,f3,b3,f1p,f2p,f3p,f0,intensity
0.025002,570.5,204.9,1217.2,75.5,1734.7,1250.8,629.8,1291.8,1659.6,186,77.5
0.027002,588.3,178.8,1231.1,92.8,1720.3,1074.6,628.9,1297.7,1661.1,185.4,77.9
0.029002,602.8,169.5,1259.1,122.6,1682.1,1031.5,627.5,1307.3,1663.6,184.7,78.2
0.031002,618.9,169.9,1312.0,137.3,1645.4,1199.5,625.6,1320.6,1667.2,183.9,78.3
0.033002,634.2,171.3,1360.2,109.2,1702.1,1570.2,623.1,1337.1,1671.7,183.1,78.4
0.035002,644.2,175.0,1387.7,85.9,1791.1,1792.9,620,1356.5,1677.2,182.3,78.4
0.037002,649.0,181.9,1411.2,76.9,1698.2,1830.6,616.4,1378.3,1683.6,181.3,78.4
0.039002,649.1,188.0,1438.7,69.6,1576.4,1794.0,612.2,1402.2,1691.1,180.4,78.4
0.041002,642.2,190.7,1464.9,59.1,1545.3,1737.3,607.5,1427.5,1699.5,179.3,78.4
0.043002,626.0,191.4,1484.1,52.8,1599.0,1491.7,602.2,1453.7,1708.8,178.3,78.4
0.045002,607.1,194.2,1499.6,53.4,1647.0,1172.9,596.5,1480.3,1719.1,177.1,78.4
0.047002,591.0,202.5,1517.0,56.5,1671.9,988.9,590.2,1506.6,1730.2,176,78.4
0.049002,578.1,212.9,1537.2,57.3,1695.1,948.8,583.4,1532,1742.2,174.8,78.2
0.051002,566.6,216.8,1560.0,54.1,1739.9,1008.2,576.1,1556.1,1755.1,173.5,78
0.053002,557.7,205.0,1579.6,51.2,1818.3,1073.9,568.4,1578.3,1768.7,172.2,77.7
0.055002,550.9,186.5,1593.8,54.5,1897.6,1024.7,560.2,1598.1,1783,170.9,77.4
0.057002,544.9,173.6,1606.3,64.8,1931.6,922.2,551.6,1615.2,1798.1,169.6,77
0.059002,537.4,162.1,1623.8,78.8,1926.5,878.8,542.6,1629.1,1813.7,168.2,76.8
0.061002,529.4,146.8,1649.9,91.7,1904.8,921.1,533.3,1639.6,1830,166.8,76.6
0.063002,523.3,132.8,1680.6,102.5,1874.2,1016.4,523.6,1646.6,1846.7,165.5,76.5
0.065002,517.6,125.5,1707.3,126.6,1819.4,1009.7,513.7,1649.8,1863.8,164.1,76.6
0.067002,508.6,121.0,1732.3,199.4,1747.1,771.5,503.5,1649.3,1881.3,162.7,76.6
0.069002,497.2,114.6,1640.9,487.8,1817.5,308.7,493.1,1645.1,1899.1,161.3,76.7
0.071002,486.0,109.6,1591.3,440.1,1884.8,296.2,482.5,1637.4,1917,159.9,76.8
0.073002,475.3,108.7,1590.8,465.0,1930.3,319.1,471.8,1626.3,1935,158.6,76.9
0.075002,465.2,110.1,1592.1,544.3,1970.7,332.7,461.1,1612.2,1953,157.3,76.9
0.077002,456.9,112.4,1566.2,658.4,1998.4,291.0,450.3,1595.5,1971,155.9,77
0.079002,449.1,114.2,1519.2,742.5,2010.7,223.0,439.6,1576.4,1988.7,154.7,77
0.081002,439.1,113.1,1475.7,755.5,2014.0,165.4,428.9,1555.6,2006.2,153.4,77
0.083002,426.1,108.7,1448.9,730.6,2016.1,128.5,418.4,1533.5,2023.3,152.2,77
0.085002,410.6,103.3,1441.2,719.3,2022.6,112.2,408,1510.7,2040,151,77
0.087002,394.0,99.8,1448.9,736.1,2036.7,111.1,397.9,1487.6,2056.1,149.8,77
0.089002,376.2,97.4,1464.4,768.5,2059.5,115.5,388,1464.8,2071.7,148.7,77.1
0.091002,359.6,93.1,1477.9,807.3,2083.7,117.3,378.5,1442.8,2086.6,147.6,77.2
0.093002,345.9,85.0,1486.2,857.1,2105.9,119.8,369.3,1422.1,2100.7,146.6,77.2
0.095002,336.7,76.9,1475.8,872.9,2128.3,125.3,360.5,1403.1,2114.1,145.6,77.3
0.097002,331.2,71.7,1444.0,786.7,2150.6,128.6,352,1386.4,2126.7,144.6,77.4
0.099002,328.1,67.6,1414.5,643.7,2166.0,127.1,344.1,1372.1,2138.5,143.7,77.4
0.101002,327.0,63.4,1396.7,532.8,2170.4,123.1,336.5,1360.7,2149.4,142.8,77.4
0.103002,327.3,60.7,1383.4,486.4,2168.2,116.6,329.5,1352.3,2159.4,141.9,77.3
0.105002,327.3,61.3,1370.6,495.1,2168.5,105.5,323,1347,2168.5,141.1,77.3
0.107002,326.1,65.2,1363.0,545.3,2174.7,90.0,316.9,1345,2176.7,140.3,77.1
0.109002,324.2,70.4,1365.9,625.5,2182.9,73.4,311.4,1346.1,2184.1,139.5,77
0.111002,322.0,73.6,1375.2,707.9,2189.1,60.0,306.3,1350.4,2190.7,138.7,76.9
0.113002,318.6,75.6,1383.6,768.5,2192.2,51.9,301.7,1357.6,2196.5,138,76.8
0.115002,313.3,78.3,1390.0,804.2,2192.3,49.4,297.6,1367.5,2201.5,137.3,76.7
0.117002,307.1,79.2,1388.4,805.2,2190.5,49.6,294,1379.9,2205.9,136.6,76.7
0.119002,301.8,76.0,1375.3,763.5,2190.7,49.1,290.8,1394.2,2209.6,135.9,76.7
0.121002,296.9,70.6,1357.0,698.6,2195.5,48.5,288,1410.2,2212.7,135.3,76.8
0.123002,292.1,65.2,1336.2,638.5,2203.7,51.5,285.6,1427.4,2215.3,134.6,76.8
0.125002,288.2,59.9,1318.0,607.7,2213.3,61.1,283.5,1445.3,2217.5,134,76.8
0.127002,284.8,53.3,1313.5,617.0,2223.4,76.9,281.8,1463.5,2219.4,133.4,76.7
0.129002,280.8,46.2,1349.9,690.9,2227.7,86.3,280.4,1481.5,2220.9,132.8,76.6
0.131002,275.7,38.1,1454.0,824.7,2224.0,83.3,279.2,1498.8,2222.2,132.2,76.5
0.133002,271.2,29.9,1591.5,920.2,2219.9,76.4,278.3,1514.9,2223.4,131.6,76.3
0.135002,269.4,24.8,1674.9,966.5,2218.3,67.9,277.5,1529.6,2224.5,131.1,76.1
0.137002,269.2,23.5,1688.4,1037.6,2218.1,60.6,276.9,1542.2,2225.5,130.5,75.8
0.139002,269.3,25.1,1665.0,1126.1,2219.1,58.0,276.4,1552.7,2226.6,130,75.6
0.141002,269.9,27.7,1629.6,1171.1,2222.1,58.7,276,1560.6,2227.8,129.4,75.3
0.143002,271.6,29.1,1591.8,1113.1,2229.1,58.0,275.6,1565.8,2229.1,128.9,74.9
0.145002,273.7,28.6,1561.1,941.9,2239.9,54.9,275.3,1568.2,2230.6,128.3,74.6
0.147002,274.7,27.0,1543.6,746.0,2251.4,50.0,275,1567.6,2232.3,127.8,74.3
0.149002,274.7,25.6,1535.5,620.6,2259.9,44.4,274.7,1564.1,2234.2,127.3,74
0.151002,274.2,24.7,1528.2,576.5,2264.9,40.1,274.4,1557.8,2236.4,126.7,73.7
0.153002,272.6,25.3,1518.1,590.0,2267.0,39.8,274,1548.8,2238.8,126.2,73.4
0.155002,270.5,27.4,1509.9,637.8,2265.9,45.1,273.6,1537.4,2241.4,125.7,73.1
0.157002,269.5,29.9,1504.0,706.4,2261.0,54.2,273.1,1523.7,2244.3,125.2,72.9
0.159002,269.9,31.4,1487.9,795.6,2252.0,60.5,272.5,1508.1,2247.5,124.6,72.7
0.161002,270.0,33.4,1455.0,910.6,2239.7,61.6,271.9,1490.9,2250.8,124.1,72.5
0.163002,269.6,36.1,1425.0,1030.2,2228.4,62.1,271.2,1472.6,2254.3,123.6,72.4
0.165002,269.3,36.1,1408.9,1084.9,2223.0,62.9,270.4,1453.6,2258.1,123.1,72.4
0.167002,268.8,31.5,1408.0,992.3,2227.4,62.3,269.6,1434.2,2261.9,122.5,72.3
0.169002,267.1,26.1,1415.7,799.8,2238.2,60.5,268.7,1414.8,2265.8,122,72.2
0.171002,264.7,23.3,1424.5,638.3,2248.7,58.7,267.7,1396,2269.8,121.5,72.1
0.173002,263.9,23.2,1427.6,577.8,2257.2,56.9,266.7,1378.1,2273.9,121,71.8
0.175002,265.4,24.4,1422.4,598.8,2267.8,54.3,265.7,1361.5,2277.9,120.5,71.4
0.177002,266.9,26.7,1408.8,668.9,2282.7,50.4,264.6,1346.4,2281.9,120,70.8
0.179002,266.7,31.4,1385.6,745.5,2298.7,44.7,263.5,1333.2,2285.8,119.5,70.1
0.181002,264.7,38.1,1359.7,778.4,2308.9,37.8,262.5,1322.1,2289.7,119,69.3
0.183002,263.6,44.5,1342.6,781.2,2311.6,32.1,261.4,1313.2,2293.3,118.5,68.4
0.185002,265.6,48.9,1326.5,792.9,2311.3,28.7,260.3,1306.7,2296.9,118,67.5
0.187002,269.0,52.9,1296.2,833.3,2312.1,28.2,259.3,1302.7,2300.2,117.5,66.7
0.189002,269.9,56.5,1253.2,891.8,2316.0,30.1,258.3,1301,2303.4,117.1,66.2
0.191002,266.9,55.7,1228.1,916.6,2321.1,32.5,257.4,1301.6,2306.3,116.6,66
0.193002,261.7,50.5,1251.2,877.3,2323.2,37.1,256.5,1304.5,2309,116.2,66
0.195002,255.9,46.8,1307.8,813.0,2320.2,49.1,255.6,1309.3,2311.5,115.8,66.2
0.197002,251.7,46.7,1349.1,780.7,2313.9,68.4,254.8,1315.8,2313.8,115.4,66.4
0.199002,250.6,46.3,1354.1,771.4,2308.9,81.5,254.1,1323.9,2315.9,115.1,66.5
0.201002,251.7,43.9,1335.7,756.8,2308.6,78.9,253.4,1333,2317.7,114.7,66.4
0.203002,253.1,41.0,1312.0,733.8,2310.5,66.2,252.8,1343,2319.3,114.4,66.2
0.205002,253.2,40.0,1302.5,712.8,2309.7,52.7,252.2,1353.5,2320.8,114.1,65.7
0.207002,250.7,41.5,1312.8,688.3,2306.1,43.8,251.8,1364,2322,113.9,65.1
0.209002,246.6,43.8,1326.8,648.5,2304.1,40.0,251.3,1374.4,2323,113.6,64.3
0.211002,244.6,44.2,1327.8,595.5,2305.9,40.4,251,1384.1,2323.9,113.4,63.5
0.213002,245.1,43.3,1320.8,539.7,2311.2,46.1,250.7,1392.9,2324.6,113.3,62.6
0.215002,245.6,44.5,1335.0,495.9,2319.7,64.3,250.4,1400.5,2325.2,113.1,61.8
0.217002,244.6,51.2,1404.3,448.6,2333.4,111.0,250.2,1406.7,2325.7,112.9,60.8
0.219002,244.1,67.0,1488.8,364.0,2347.4,192.0,250.1,1411.3,2326,112.8,59.8
0.221002,249.1,95.5,1527.2,308.9,2343.8,288.4,250,1414.1,2326.1,112.7,58.6
0.223002,265.1,137.3,1543.0,305.6,2337.5,377.7,250,1415,2326.2,112.6,57.3
