time,f1,b1,f2,b2,f3,b3,f1p,f2p,f3p,f0,intensity
0.025145,522.8,208.1,1175.0,184.8,2471.4,186.3,524.7,1098.3,2415.7,179.8,74.9
0.027145,518.8,166.3,1137.3,141.6,2460.4,159.2,525.7,1101.2,2416.7,179.8,76.2
0.029145,520.5,144.7,1116.0,122.6,2440.1,154.9,527.3,1105.9,2418.5,179.8,77.2
0.031145,526.7,144.0,1108.7,126.1,2424.5,154.6,529.4,1112.3,2421,179.8,78.1
0.033145,536.0,159.0,1113.9,148.9,2421.9,152.3,532.1,1120.3,2424.1,179.8,78.9
0.035145,544.0,170.6,1124.4,174.1,2423.2,152.6,535,1129.7,2427.7,179.8,79.7
0.037145,549.2,170.1,1134.2,193.5,2420.4,160.1,538.2,1140.3,2431.8,179.8,80.3
0.039145,551.6,160.7,1141.1,207.3,2414.2,168.3,541.6,1151.8,2436.4,179.8,80.8
0.041145,552.6,147.7,1146.9,217.1,2411.1,169.2,544.8,1163.9,2441.3,179.8,81.3
0.043145,552.8,134.2,1152.0,220.7,2416.9,161.7,547.9,1176.4,2446.5,179.9,81.7
0.045145,552.2,122.8,1156.4,219.0,2428.1,150.9,550.7,1188.9,2452,179.9,82.1
0.047145,550.9,111.3,1161.7,216.8,2438.0,141.3,553,1201.2,2457.6,180,82.3
0.049145,549.3,99.7,1169.7,216.5,2442.4,137.2,554.7,1213,2463.3,180.1,82.5
0.051145,547.5,87.1,1182.7,216.6,2444.1,138.7,555.8,1224,2469.1,180.1,82.7
0.053145,545.9,75.8,1200.1,214.8,2447.3,145.2,556.1,1234,2475,180.2,82.9
0.055145,544.6,65.9,1221.8,211.3,2455.0,155.5,555.6,1242.7,2481,180.3,82.9
0.057145,543.8,58.0,1248.3,208.9,2470.7,166.9,554.3,1249.9,2487,180.4,83
0.059145,543.2,53.0,1274.5,208.5,2493.2,170.6,552,1255.5,2493.1,180.5,83
0.061145,542.8,50.1,1297.3,208.2,2519.0,158.2,548.9,1259.4,2499.3,180.5,83
0.063145,541.9,49.0,1310.0,208.3,2537.3,135.2,544.9,1261.4,2505.6,180.6,82.9
0.065145,540.2,49.3,1314.0,213.1,2547.5,113.5,540.1,1261.6,2512,180.7,82.7
0.067145,537.6,51.4,1311.9,226.1,2553.1,98.0,534.6,1260,2518.6,180.7,82.5
0.069145,534.4,54.9,1303.9,243.9,2556.0,89.6,528.4,1256.6,2525.4,180.8,82.3
0.071145,529.9,61.2,1285.5,263.0,2558.0,84.7,521.6,1251.5,2532.4,180.8,82.1
0.073145,524.5,71.3,1257.2,273.0,2560.6,81.8,514.3,1244.9,2539.6,180.8,81.8
0.075145,517.2,87.1,1222.2,259.1,2564.9,79.2,506.6,1237,2547.1,180.7,81.5
0.077145,508.7,107.0,1194.6,223.5,2569.6,77.5,498.6,1227.9,2554.7,180.7,81.2
0.079145,499.9,132.9,1178.8,190.6,2572.5,75.7,490.3,1217.9,2562.5,180.6,80.8
0.081145,490.8,169.8,1172.8,175.6,2571.1,70.2,482,1207.3,2570.3,180.5,80.5
0.083145,481.2,215.3,1172.5,179.0,2568.0,61.3,473.6,1196.2,2578.2,180.4,80.1
0.085145,468.7,269.2,1172.8,193.5,2567.8,53.1,465.2,1185.1,2586.1,180.2,79.9
0.087145,454.5,306.4,1169.6,206.7,2571.1,48.9,456.9,1174,2593.9,180,79.7
0.089145,441.0,302.8,1161.8,213.0,2576.5,48.7,448.8,1163.4,2601.5,179.8,79.6
0.091145,431.6,266.6,1150.7,214.8,2582.9,53.5,440.9,1153.3,2608.8,179.5,79.7
0.093145,424.1,225.1,1137.5,218.8,2591.2,64.0,433.2,1144,2615.8,179.2,79.8
0.095145,417.2,189.7,1126.9,229.5,2603.3,78.8,425.8,1135.8,2622.3,178.9,79.8
0.097145,411.1,164.8,1126.9,246.3,2618.1,89.0,418.7,1128.7,2628.4,178.5,79.8
0.099145,405.1,146.4,1139.0,265.9,2631.7,91.5,411.9,1122.8,2633.8,178.2,79.7
0.101145,399.4,133.6,1152.0,278.8,2639.1,91.2,405.5,1118.2,2638.7,177.8,79.5
0.103145,394.0,121.7,1152.0,280.9,2640.3,90.8,399.4,1115,2643.1,177.3,79.2
0.105145,388.8,108.0,1133.3,267.8,2637.6,86.2,393.8,1113.1,2646.8,176.9,79
0.107145,384.3,94.8,1107.3,239.9,2637.9,77.0,388.6,1112.4,2650.1,176.4,78.7
0.109145,380.5,84.0,1087.7,207.0,2646.9,68.2,383.9,1112.9,2652.8,176,78.5
0.111145,377.8,78.8,1081.1,188.6,2662.4,63.7,379.6,1114.5,2655.2,175.5,78.2
0.113145,376.1,79.7,1083.4,195.1,2676.4,62.0,376,1116.9,2657.4,175,77.8
0.115145,375.9,85.7,1091.3,237.1,2678.2,62.6,372.9,1120,2659.4,174.5,77.5
0.117145,377.3,92.5,1102.5,320.8,2671.6,65.6,370.5,1123.7,2661.5,174.1,77.1
0.119145,379.9,95.2,1115.3,437.3,2667.8,70.8,368.8,1127.7,2663.7,173.6,76.7
0.121145,382.3,92.4,1128.6,519.9,2674.9,74.5,367.9,1131.8,2666.3,173.2,76.3
0.123145,383.1,85.9,1140.3,523.0,2692.1,73.0,367.8,1135.7,2669.4,172.8,75.9
0.125145,381.8,78.9,1144.7,477.3,2709.1,69.9,368.5,1139.4,2673.1,172.4,75.6
0.127145,379.0,73.6,1149.5,439.6,2719.5,73.9,370,1142.7,2677.5,172,75.3
0.129145,376.7,72.6,1165.3,442.6,2719.6,91.1,372.4,1145.3,2682.8,171.7,74.9
0.131145,375.8,76.7,1190.6,490.6,2708.1,120.6,375.7,1147.2,2689.1,171.4,74.6
0.133145,376.6,85.5,1214.1,578.4,2688.2,149.3,379.8,1148.3,2696.2,171.2,74.2
0.135145,379.4,97.1,1225.4,682.9,2674.7,158.7,384.8,1148.6,2704.4,171,73.8
0.137145,384.4,109.6,1223.0,786.6,2673.5,153.8,390.4,1147.9,2713.4,170.9,73.4
0.139145,390.1,117.5,1205.8,843.6,2683.1,148.8,396.7,1146.4,2723.3,170.8,73
0.141145,396.3,122.7,1179.3,855.5,2702.5,153.2,403.5,1144,2733.8,170.8,72.6
0.143145,403.8,134.8,1155.5,870.4,2731.6,171.5,410.7,1141,2745,170.8,72.2
0.145145,412.3,159.5,1126.8,910.5,2757.6,194.0,418.2,1137.3,2756.5,170.8,71.8
0.147145,420.9,191.8,1062.1,921.7,2770.3,203.9,425.8,1133.1,2768.2,171,71.3
0.149145,426.7,210.0,994.1,857.8,2771.0,188.8,433.3,1128.6,2779.8,171.1,70.8
0.151145,430.0,205.7,949.3,760.6,2767.4,157.6,440.7,1123.9,2791,171.3,70.3
0.153145,433.7,190.4,928.0,692.6,2766.3,132.0,447.6,1119.3,2801.7,171.6,69.5
0.155145,440.6,175.2,929.1,682.9,2770.6,116.9,454,1114.8,2811.6,171.9,68.7
0.157145,449.5,160.1,971.7,750.3,2782.3,114.8,459.8,1110.7,2820.4,172.2,67.6
0.159145,455.5,146.5,1072.2,866.9,2802.6,130.7,464.6,1107.2,2827.9,172.6,66.5
0.161145,461.9,145.8,1213.7,1001.9,2842.4,164.9,468.6,1104.2,2834,173,65.3
0.163145,477.4,168.2,1315.1,1180.7,2892.8,179.6,471.5,1102,2838.5,173.4,64.2
0.165145,501.2,197.5,1299.5,1371.0,2910.8,170.6,473.2,1100.7,2841.2,173.8,63.3
0.167145,514.9,208.0,1212.7,1354.5,2897.8,169.3,473.8,1100.3,2842.1,174.2,62.7
