time,f1,b1,f2,b2,f3,b3,f1p,f2p,f3p,f0,intensity
0.025660,484.3,143.9,1503.7,58.4,2299.2,250.5,548.3,1504.2,2318.1,150.2,79.1
0.027660,514.5,124.5,1502.5,59.8,2294.0,239.4,550.2,1504.4,2319.9,150.1,79.4
0.029660,538.6,111.5,1504.3,61.9,2298.8,237.0,553.2,1504.6,2322.8,150.1,79.7
0.031660,559.7,104.5,1507.4,65.6,2306.9,242.7,557.2,1504.9,2326.8,150,79.9
0.033660,577.2,103.7,1511.7,72.3,2320.5,258.6,562,1505.1,2331.8,150,80.2
0.035660,592.1,109.3,1516.6,84.5,2343.2,290.8,567.5,1505.1,2337.6,149.9,80.4
0.037660,603.4,117.6,1519.3,101.5,2369.7,325.7,573.4,1504.9,2344.1,149.9,80.6
0.039660,610.5,120.9,1518.2,117.0,2390.3,335.1,579.3,1504.4,2351.1,149.8,80.8
0.041660,612.9,116.0,1512.9,125.5,2399.1,318.0,585.1,1503.4,2358.4,149.8,81
0.043660,612.4,107.3,1503.1,127.3,2397.9,296.5,590.5,1501.9,2366,149.7,81.1
0.045660,610.1,97.1,1489.0,122.6,2388.9,273.3,595.1,1499.8,2373.6,149.6,81.2
0.047660,606.7,85.9,1476.2,109.0,2377.5,243.6,598.8,1497.1,2381.1,149.6,81.3
0.049660,602.7,76.9,1469.1,90.2,2373.5,212.1,601.4,1493.5,2388.4,149.5,81.4
0.051660,598.5,73.1,1466.1,71.7,2379.0,186.8,602.7,1489.3,2395.3,149.5,81.4
0.053660,594.0,73.4,1465.3,57.4,2388.5,169.4,602.5,1484.3,2401.7,149.4,81.4
0.055660,588.9,76.4,1465.4,46.5,2399.9,159.3,600.9,1478.5,2407.7,149.3,81.4
0.057660,584.1,82.9,1464.3,39.0,2411.8,160.4,597.8,1472.1,2413.1,149.3,81.4
0.059660,579.5,93.4,1461.7,34.2,2423.5,172.1,593.2,1465.1,2418,149.2,81.4
0.061660,574.6,106.0,1459.3,31.6,2432.9,185.4,587.2,1457.5,2422.4,149.1,81.3
0.063660,569.6,119.5,1458.2,31.3,2436.6,189.1,580.1,1449.5,2426.3,149.1,81.2
0.065660,564.2,136.0,1456.8,32.7,2435.8,179.1,571.8,1441.2,2429.8,149,81
0.067660,558.2,153.9,1453.5,34.5,2434.9,163.3,562.8,1432.8,2433,148.9,80.9
0.069660,550.9,172.5,1447.2,36.7,2435.0,153.5,553.1,1424.2,2435.9,148.8,80.7
0.071660,543.0,191.4,1437.8,39.8,2433.3,154.6,543,1415.7,2438.8,148.7,80.5
0.073660,534.6,208.3,1424.1,42.6,2428.1,163.9,532.8,1407.3,2441.7,148.6,80.4
0.075660,525.4,214.3,1408.4,42.7,2422.9,175.0,522.7,1399.2,2444.7,148.5,80.4
0.077660,514.7,210.4,1392.5,40.6,2423.0,182.3,513,1391.3,2447.8,148.4,80.4
0.079660,504.6,202.2,1378.3,37.7,2430.0,180.5,503.7,1383.7,2451.3,148.3,80.4
0.081660,497.2,195.5,1368.2,35.0,2442.0,171.4,495.1,1376.4,2455.1,148.1,80.4
0.083660,491.0,198.0,1360.9,33.9,2458.3,161.0,487.3,1369.4,2459.3,147.9,80.5
0.085660,485.1,209.5,1354.4,34.5,2473.6,153.9,480.3,1362.6,2463.9,147.8,80.5
0.087660,480.2,216.4,1347.9,35.3,2484.7,149.5,474.2,1355.9,2468.9,147.6,80.6
0.089660,475.4,206.9,1342.5,35.8,2492.7,147.3,469,1349.3,2474.3,147.3,80.6
0.091660,469.2,185.3,1337.7,37.6,2498.8,152.8,464.6,1342.6,2480,147.1,80.6
0.093660,462.6,161.4,1331.4,42.2,2501.2,171.2,460.8,1335.6,2486,146.8,80.6
0.095660,458.1,148.3,1322.9,49.7,2498.3,187.2,457.7,1328.4,2492.1,146.5,80.6
0.097660,455.5,153.1,1313.9,59.6,2498.1,172.9,454.9,1320.6,2498.3,146.2,80.6
0.099660,453.4,176.4,1306.0,71.7,2505.5,137.5,452.4,1312.1,2504.4,145.8,80.6
0.101660,452.5,210.5,1299.4,83.2,2513.8,105.5,449.9,1303,2510.4,145.5,80.5
0.103660,452.8,253.6,1291.5,95.1,2519.6,82.0,447.3,1293,2516,145.1,80.4
0.105660,451.3,297.6,1280.9,108.4,2522.4,69.6,444.3,1282.1,2521.3,144.6,80.3
0.107660,445.1,327.7,1267.5,120.5,2523.6,65.2,440.9,1270.3,2526.1,144.2,80.2
0.109660,436.7,337.5,1253.7,126.5,2524.8,66.3,436.9,1257.6,2530.3,143.7,80.1
0.111660,428.0,340.5,1239.4,129.2,2526.8,72.5,432.1,1244,2533.8,143.1,79.9
0.113660,419.5,344.2,1226.4,131.8,2529.5,81.9,426.7,1229.7,2536.7,142.6,79.8
0.115660,410.5,340.0,1215.8,133.3,2533.7,87.6,420.4,1214.8,2538.8,142,79.6
0.117660,401.0,322.5,1206.8,132.9,2539.8,85.3,413.4,1199.4,2540.2,141.4,79.4
0.119660,391.7,301.6,1197.4,133.2,2545.3,79.1,405.8,1183.9,2541,140.8,79.3
0.121660,382.8,283.7,1184.7,136.6,2548.2,72.4,397.6,1168.3,2541.1,140.2,79.1
0.123660,375.2,271.3,1169.1,143.6,2547.2,67.4,389,1153,2540.6,139.5,78.9
0.125660,368.1,265.6,1151.9,156.1,2542.5,66.4,380.2,1138.3,2539.7,138.8,78.6
0.127660,362.3,264.6,1136.6,174.5,2535.2,71.1,371.4,1124.3,2538.4,138.1,78.3
0.129660,360.4,262.0,1128.9,193.7,2528.7,78.9,362.7,1111.5,2536.8,137.4,78
0.131660,363.1,259.7,1128.4,216.0,2525.6,90.3,354.5,1100,2535.1,136.7,77.7
0.133660,367.9,266.8,1127.0,245.3,2526.2,111.2,346.8,1090,2533.4,136,77.3
0.135660,370.0,278.2,1107.0,270.6,2528.2,151.2,340,1081.8,2531.8,135.3,76.9
0.137660,365.4,273.4,1063.7,257.9,2528.3,198.9,334.1,1075.4,2530.4,134.6,76.6
0.139660,356.5,244.9,1017.9,205.0,2523.6,214.2,329.4,1071,2529.3,133.8,76.2
0.141660,346.3,210.5,990.1,157.7,2516.5,181.6,325.8,1068.5,2528.6,133.1,75.9
0.143660,335.6,187.1,980.7,137.6,2511.2,145.0,323.5,1068.1,2528.3,132.4,75.6
0.145660,327.0,179.5,987.7,142.2,2509.6,126.5,322.5,1069.5,2528.4,131.7,75.2
0.147660,320.1,184.8,1007.2,166.2,2514.0,121.8,322.7,1072.6,2529,131,74.8
0.149660,311.7,190.3,1039.9,211.2,2526.4,121.0,324.1,1077.3,2530,130.4,74.4
0.151660,303.2,175.3,1088.9,274.9,2543.3,118.3,326.5,1083.3,2531.3,129.7,73.9
0.153660,298.4,144.1,1158.5,350.6,2560.5,118.2,329.8,1090.4,2533.1,129.1,73.3
0.155660,299.5,123.8,1231.7,415.1,2577.3,126.2,333.7,1098.1,2535,128.5,72.7
0.157660,307.4,127.5,1259.0,442.6,2589.5,138.7,338,1106.2,2537.2,127.9,72.1
0.159660,319.3,140.4,1227.7,423.4,2592.1,151.2,342.6,1114.4,2539.4,127.3,71.4
0.161660,329.9,145.0,1175.9,365.5,2583.3,161.2,347.2,1122.3,2541.6,126.8,70.8
0.163660,340.4,151.8,1134.2,325.2,2566.2,167.4,351.5,1129.6,2543.6,126.3,70.2
0.165660,353.4,173.3,1100.3,332.0,2546.4,167.8,355.4,1136,2545.4,125.8,69.6
0.167660,367.3,205.5,1075.0,373.4,2530.1,167.5,358.6,1141.3,2546.9,125.4,69
0.169660,381.7,245.1,1068.0,433.7,2515.7,180.6,361,1145.2,2548.1,125,68.3
0.171660,394.7,288.9,1086.2,495.8,2500.3,227.4,362.5,1147.6,2548.8,124.6,67.5
0.173660,403.0,349.9,1124.3,555.5,2480.7,328.1,363,1148.4,2549,124.2,66.6
