time,f1,b1,f2,b2,f3,b3,f1p,f2p,f3p,f0,intensity
0.025084,532.9,246.9,1002.4,280.2,2622.8,407.7,583.5,1028.4,2640,0,65.6
0.027084,579.7,228.9,1027.4,293.6,2690.7,546.7,587.4,1031,2652.3,0,65.9
0.029084,610.4,216.6,1047.0,272.5,2743.2,669.3,593.7,1035.1,2672,0,66.4
0.031084,622.2,210.3,1052.2,227.5,2753.6,696.5,602.2,1040.8,2697.9,0,67
0.033084,627.8,202.3,1054.6,180.5,2741.5,656.9,612.4,1047.8,2728.5,0,67.8
0.035084,634.7,188.5,1060.1,146.9,2728.2,602.3,624.2,1055.9,2762.2,0,68.6
0.037084,642.6,166.2,1066.7,125.0,2732.0,548.9,636.8,1064.9,2797,0,69.3
0.039084,650.8,141.1,1071.9,108.5,2764.0,488.2,650.1,1074.5,2831.1,0,69.8
0.041084,659.8,122.8,1075.9,98.0,2818.9,406.4,663.3,1084.5,2862.6,0,70.1
0.043084,670.3,115.4,1081.3,95.5,2871.1,300.5,676.2,1094.7,2890,0,70.1
0.045084,684.0,121.4,1092.2,104.9,2906.2,202.9,688.2,1104.7,2912,0,69.8
0.047084,699.2,144.6,1111.1,130.7,2932.6,146.2,699.1,1114.4,2927.7,0,69.3
0.049084,711.3,179.3,1134.6,168.1,2954.2,120.8,708.6,1123.6,2936.7,0,68.9
0.051084,720.9,212.3,1158.3,211.7,2965.7,118.6,716.6,1132,2939,0,68.8
0.053084,732.6,222.1,1172.8,242.3,2955.0,147.0,722.8,1139.7,2935.1,0,69.2
0.055084,737.2,203.3,1171.2,222.6,2920.2,195.3,727.4,1146.4,2925.9,0,69.9
0.057084,732.7,170.6,1161.1,175.3,2880.0,220.7,730.3,1152.3,2912.6,0,70.7
0.059084,726.2,139.7,1149.5,134.6,2860.5,213.3,731.8,1157.2,2896.6,0,71.4
0.061084,721.2,114.2,1139.3,104.7,2858.5,194.7,732.1,1161.2,2879.6,0,71.7
0.063084,718.6,93.1,1132.1,82.8,2867.5,173.7,731.5,1164.4,2863.1,0,71.8
0.065084,720.0,80.9,1132.2,74.3,2885.3,156.2,730.1,1166.8,2848.8,0,71.7
0.067084,724.3,78.4,1142.4,85.4,2901.2,133.4,728.4,1168.7,2838,0,71.4
0.069084,727.1,77.1,1159.0,113.4,2897.4,100.8,726.6,1170.2,2831.7,0,70.9
0.071084,727.5,71.2,1174.7,145.4,2882.8,72.9,725,1171.3,2830.6,0,70.5
0.073084,726.9,65.4,1181.2,166.8,2871.2,60.4,723.7,1172.2,2835,0,70
0.075084,726.5,65.3,1183.8,181.7,2862.1,63.4,723,1173,2844.8,0,69.5
0.077084,726.4,74.9,1192.2,195.8,2852.4,77.1,722.9,1173.8,2859.4,0,69
0.079084,724.2,88.1,1197.3,196.8,2846.2,87.4,723.5,1174.6,2877.9,0,68.6
0.081084,720.8,93.6,1194.5,188.3,2846.5,89.5,724.7,1175.5,2899,0,68.1
0.083084,719.3,96.1,1190.4,185.7,2854.5,89.8,726.5,1176.5,2921.3,0,67.6
0.085084,722.2,108.5,1190.3,204.5,2873.6,93.1,728.6,1177.5,2943.2,0,67.1
0.087084,731.5,143.4,1190.5,245.2,2902.3,101.5,730.9,1178.4,2963.1,0,66.6
0.089084,746.8,203.7,1177.9,273.5,2932.9,113.6,733.1,1179.2,2979.6,0,66
0.091084,754.3,241.0,1159.7,255.2,2957.6,128.9,735,1179.7,2991.2,0,65.6
0.093084,753.1,237.2,1151.3,228.5,2982.2,147.1,736.3,1179.7,2997.1,0,65.4
0.095084,750.3,218.8,1151.8,217.9,3012.3,162.4,736.8,1179.2,2996.5,0,65.3
0.097084,740.9,190.3,1161.1,219.8,3031.6,164.0,736.3,1177.8,2989.1,0,65.3
0.099084,726.2,155.3,1173.1,222.2,3031.8,158.7,734.6,1175.5,2975,0,65.5
0.101084,716.0,125.9,1179.9,224.6,3022.6,156.6,731.5,1172.2,2954.8,0,65.6
0.103084,714.0,110.3,1182.5,238.3,3010.0,164.4,726.9,1167.6,2929.3,0,65.8
0.105084,715.5,107.8,1185.0,276.8,2994.1,194.1,720.9,1161.8,2899.7,0,65.9
0.107084,712.1,119.8,1178.2,331.0,2971.7,278.1,713.5,1154.7,2867.2,0,65.9
0.109084,694.7,144.3,1145.8,340.6,2898.4,476.3,704.7,1146.3,2833.4,0,65.9
0.111084,669.6,155.3,1111.7,281.6,2738.0,522.6,694.7,1136.6,2799.7,0,65.9
0.113084,655.0,147.5,1092.4,228.7,2649.8,386.2,683.7,1125.7,2767.6,0,65.7
0.115084,653.8,140.4,1084.1,208.6,2624.0,234.6,671.8,1113.8,2738.3,0,65.4
0.117084,662.6,144.7,1090.0,235.0,2630.1,143.1,659.4,1101.1,2712.7,0,65
0.119084,667.7,147.5,1108.6,297.5,2640.9,104.7,646.7,1087.8,2691.5,0,64.6
0.121084,659.1,135.7,1125.6,366.3,2650.5,89.2,633.9,1074.2,2675.2,0,64.3
0.123084,649.2,126.4,1114.0,413.5,2658.9,84.8,621.3,1060.6,2663.7,0,64.2
0.125084,643.4,139.4,1071.4,424.0,2667.4,88.0,609.3,1047.2,2656.7,0,64.3
0.127084,632.3,189.6,1016.1,383.9,2677.3,102.2,598,1034.5,2653.7,0,64.4
0.129084,604.5,264.4,985.0,307.5,2687.5,128.9,587.7,1022.7,2653.9,0,64.5
0.131084,571.6,307.8,982.0,245.3,2693.3,159.9,578.7,1012.1,2656.3,0,64.4
0.133084,549.5,319.0,986.2,206.2,2691.5,192.5,571,1003,2660.1,0,64.1
0.135084,541.2,344.3,988.0,198.4,2684.1,229.0,564.9,995.7,2664.2,0,63.6
0.137084,541.3,420.7,985.8,233.6,2673.8,276.4,560.4,990.3,2667.8,0,62.9
0.139084,546.3,515.9,985.7,332.9,2660.7,343.7,557.7,987,2670.2,0,62.1
0.141084,554.8,493.3,1020.8,502.9,2655.2,422.6,556.8,985.9,2671,0,61.4
