time,f1,b1,f2,b2,f3,b3,f1p,f2p,f3p,f0,intensity
0.025206,427.6,122.1,1198.4,56.5,2120.4,164.9,468.7,1203.3,2237.3,173.4,71.1
0.027206,448.8,112.8,1196.0,54.0,2164.4,216.8,469.3,1199.1,2240.3,173.2,71.3
0.029206,464.1,110.1,1194.1,52.5,2237.2,241.3,470.4,1192.3,2245.4,173,71.6
0.031206,475.1,109.8,1188.9,53.4,2294.4,218.4,471.8,1183,2252.3,172.8,72
0.033206,482.6,109.8,1180.3,59.5,2317.1,202.2,473.5,1171.6,2260.9,172.5,72.3
0.035206,489.6,110.5,1169.7,71.6,2328.2,201.2,475.2,1158.3,2271.2,172.2,72.6
0.037206,495.9,111.8,1155.5,88.0,2336.3,209.4,477,1143.5,2282.6,171.9,72.9
0.039206,499.2,112.1,1132.8,103.0,2341.6,229.8,478.7,1127.6,2295.1,171.6,73.1
0.041206,497.8,110.0,1104.5,106.1,2341.4,271.2,480.2,1111.1,2308.2,171.3,73.3
0.043206,493.8,107.1,1077.8,97.5,2334.2,341.8,481.4,1094.4,2321.4,171,73.5
0.045206,490.0,108.0,1059.0,85.5,2321.7,435.1,482.2,1077.9,2334.3,170.6,73.7
0.047206,487.0,116.3,1046.7,75.5,2313.0,537.6,482.5,1062,2346.4,170.2,73.9
0.049206,484.3,130.5,1038.2,69.1,2322.9,606.5,482.3,1047,2357.1,169.9,74
0.051206,480.9,147.6,1030.5,64.2,2353.6,604.2,481.5,1033.2,2365.8,169.5,74.1
0.053206,475.7,164.2,1022.3,59.8,2380.3,536.7,480.3,1020.8,2372.1,169.1,74.2
0.055206,469.1,176.4,1013.8,54.8,2386.1,468.0,478.6,1010.1,2375.4,168.7,74.4
0.057206,463.6,177.0,1006.8,48.9,2379.0,438.8,476.5,1001,2375.3,168.3,74.5
0.059206,460.4,168.1,1000.9,43.2,2365.1,438.7,474.1,993.6,2371.7,167.9,74.7
0.061206,459.5,158.2,996.1,39.3,2347.8,443.2,471.5,987.8,2364.4,167.5,74.8
0.063206,459.9,153.5,991.9,38.0,2334.5,410.7,468.9,983.6,2353.4,167.1,75
0.065206,460.4,154.5,988.6,39.3,2323.1,342.8,466.3,980.7,2338.8,166.7,75.2
0.067206,460.8,157.7,985.3,41.8,2307.0,284.5,464,979,2321.2,166.3,75.4
0.069206,461.1,161.0,982.3,44.1,2290.1,253.1,461.9,978.1,2301,165.9,75.6
0.071206,461.1,162.0,980.2,44.8,2274.0,247.5,460.3,978,2278.9,165.5,75.8
0.073206,461.1,158.8,978.5,43.9,2254.9,258.3,459.3,978.2,2255.7,165.2,76
0.075206,462.1,153.5,977.2,42.8,2234.1,273.4,458.7,978.6,2232.4,164.8,76.2
0.077206,464.6,149.8,976.2,43.3,2215.4,284.3,458.8,979,2209.9,164.5,76.3
0.079206,467.3,147.1,975.0,45.3,2202.0,290.8,459.5,979.1,2189.1,164.1,76.5
0.081206,469.5,141.8,973.1,47.1,2192.3,295.4,460.7,978.8,2170.9,163.8,76.6
0.083206,470.8,133.8,970.4,48.2,2185.1,300.7,462.5,978,2156.1,163.4,76.7
0.085206,472.0,127.0,967.7,49.9,2177.8,312.3,464.7,976.7,2145.3,163.1,76.8
0.087206,473.4,125.0,966.1,52.4,2169.2,333.0,467.1,975,2138.8,162.8,77
0.089206,474.6,126.4,965.5,55.4,2157.6,360.7,469.8,972.8,2136.7,162.5,77.1
0.091206,475.5,127.7,965.6,57.7,2143.7,387.9,472.5,970.4,2139,162.2,77.2
0.093206,476.2,126.9,966.0,58.1,2130.3,409.4,475.1,968,2145.1,162,77.3
0.095206,476.1,125.0,966.7,56.8,2122.2,422.4,477.4,965.7,2154.4,161.7,77.4
0.097206,475.6,124.0,968.0,55.4,2121.7,430.9,479.3,963.7,2166,161.4,77.4
0.099206,475.3,123.4,969.9,53.8,2132.7,435.6,480.8,962.5,2178.7,161.2,77.4
0.101206,474.4,122.5,971.8,51.9,2158.9,428.2,481.5,962.1,2191.1,160.9,77.4
0.103206,472.5,122.6,973.4,50.8,2193.5,400.8,481.6,963,2202.1,160.7,77.4
0.105206,470.7,123.5,975.2,50.8,2226.0,352.1,480.8,965.1,2210,160.5,77.4
0.107206,469.0,121.1,977.5,50.7,2240.6,281.4,479.3,968.8,2213.7,160.3,77.3
0.109206,467.3,115.7,980.5,50.9,2233.7,216.3,476.9,974.2,2211.9,160,77.3
0.111206,466.4,111.0,984.7,53.0,2215.2,171.9,473.8,981.3,2203.6,159.8,77.2
0.113206,466.3,109.6,990.5,58.3,2189.1,147.8,469.9,990.2,2188.2,159.7,77.2
0.115206,465.6,111.4,997.8,67.9,2155.3,135.7,465.3,1000.6,2165.4,159.5,77.1
0.117206,464.3,112.7,1005.5,79.1,2122.4,131.5,460.2,1012.6,2135.1,159.3,77
0.119206,462.4,113.2,1014.7,90.3,2092.5,138.9,454.6,1025.8,2097.7,159.1,76.9
0.121206,459.1,115.2,1026.8,102.4,2062.6,168.7,448.8,1040.1,2054.1,159,76.8
0.123206,454.1,119.1,1043.1,116.9,2022.6,232.2,442.7,1055,2005.4,158.8,76.7
0.125206,448.8,122.1,1061.5,128.8,1970.8,316.5,436.7,1070.3,1953.1,158.7,76.6
0.127206,443.0,124.6,1081.9,136.1,1909.5,411.8,430.8,1085.4,1898.8,158.6,76.6
0.129206,436.5,128.8,1101.6,138.0,1847.1,507.7,425.2,1100.1,1844.5,158.4,76.5
0.131206,429.7,135.3,1118.8,133.8,1790.8,591.7,420,1113.8,1792.2,158.3,76.5
0.133206,423.2,141.8,1131.3,125.6,1751.1,640.5,415.3,1126.2,1743.9,158.2,76.5
0.135206,416.0,147.7,1140.8,118.9,1717.2,639.3,411.4,1136.9,1701.4,158.1,76.4
0.137206,408.0,153.6,1147.4,118.7,1677.4,563.7,408.2,1145.5,1666.4,158,76.4
0.139206,398.6,158.5,1152.4,125.5,1632.7,428.3,405.8,1151.9,1640.3,157.9,76.4
0.141206,387.7,159.3,1157.4,131.7,1602.2,316.4,404.4,1155.9,1624.3,157.8,76.3
0.143206,374.6,156.7,1164.5,135.6,1587.0,254.0,403.9,1157.2,1618.8,157.8,76.2
