time,f1,b1,f2,b2,f3,b3,f1p,f2p,f3p,f0,intensity
0.025156,302.7,36.2,2158.2,66.1,2918.0,209.1,302.8,2177.4,2919,144.2,73.7
0.027156,303.9,39.6,2161.4,66.5,2917.8,208.2,303,2178.4,2920.9,144,74.1
0.029156,304.4,42.6,2166.7,72.1,2922.5,214.4,303.2,2180,2923.9,143.8,74.5
0.031156,304.6,44.6,2174.8,77.7,2932.0,219.9,303.6,2182.3,2928,143.6,74.8
0.033156,304.5,44.9,2184.1,77.0,2942.2,216.0,303.9,2185.2,2933.1,143.4,75.1
0.035156,303.8,44.6,2193.7,71.3,2949.6,201.6,304.3,2188.8,2938.9,143.2,75.4
0.037156,303.2,45.5,2203.0,65.0,2954.2,181.1,304.7,2192.9,2945.3,143,75.7
0.039156,303.3,48.2,2210.6,60.1,2957.6,157.2,305,2197.5,2952.1,142.7,75.9
0.041156,303.9,52.1,2216.3,56.1,2960.2,129.9,305.2,2202.7,2959.1,142.5,76.2
0.043156,304.4,57.3,2222.2,54.1,2961.4,103.2,305.4,2208.2,2966.1,142.3,76.4
0.045156,304.8,62.5,2229.2,55.2,2962.2,83.9,305.4,2214,2973,142,76.6
0.047156,305.5,65.9,2235.1,57.8,2964.3,73.9,305.4,2220,2979.5,141.8,76.7
0.049156,305.9,66.7,2238.6,60.3,2969.4,71.2,305.2,2226,2985.5,141.6,76.9
0.051156,305.8,66.2,2241.6,63.2,2978.2,73.7,304.9,2231.9,2991,141.3,77
0.053156,305.5,64.7,2244.4,66.1,2988.0,78.3,304.6,2237.5,2995.8,141.1,77
0.055156,305.3,62.6,2245.0,67.5,2995.4,83.6,304.2,2242.8,2999.9,140.9,77.1
0.057156,304.7,61.0,2242.7,67.8,3001.3,92.4,303.8,2247.5,3003.3,140.6,77.1
0.059156,303.5,60.3,2240.1,67.6,3008.0,104.7,303.4,2251.6,3006.1,140.4,77.1
0.061156,302.5,60.1,2239.5,66.1,3014.4,112.7,303.2,2254.9,3008.2,140.2,77.2
0.063156,302.2,60.4,2241.0,65.0,3019.1,110.0,303,2257.5,3009.7,139.9,77.2
0.065156,302.2,61.9,2243.5,68.7,3022.5,100.9,303,2259.3,3010.7,139.7,77.2
0.067156,302.6,64.5,2246.0,80.8,3024.2,93.1,303.1,2260.3,3011.3,139.5,77.3
0.069156,303.6,67.4,2247.5,96.8,3023.1,90.4,303.5,2260.7,3011.6,139.2,77.3
0.071156,304.7,71.4,2247.6,106.6,3020.0,93.2,304.1,2260.6,3011.6,139,77.3
0.073156,305.5,76.5,2248.2,108.4,3016.9,101.0,304.9,2260,3011.3,138.8,77.3
0.075156,306.2,81.3,2251.3,105.9,3014.9,107.6,305.9,2259.3,3010.8,138.5,77.3
0.077156,307.4,85.4,2257.1,102.0,3013.7,106.7,307.1,2258.5,3010,138.3,77.3
0.079156,308.8,91.2,2264.9,101.2,3011.5,101.1,308.5,2257.9,3009,138.1,77.3
0.081156,310.2,99.3,2273.8,108.4,3007.5,96.8,310,2257.7,3007.6,137.9,77.3
0.083156,311.9,105.8,2280.9,122.4,3002.5,96.4,311.6,2257.9,3005.9,137.6,77.3
0.085156,313.2,107.8,2282.2,135.0,2997.3,99.9,313.3,2258.8,3003.5,137.4,77.2
0.087156,313.7,107.8,2278.3,143.9,2991.8,108.1,315,2260.4,3000.5,137.2,77.2
0.089156,314.5,108.7,2275.4,150.3,2985.3,118.5,316.7,2262.6,2996.6,136.9,77.2
0.091156,316.7,113.0,2276.1,145.1,2976.9,125.1,318.5,2265.3,2991.7,136.7,77.2
0.093156,319.5,120.4,2277.6,123.7,2967.2,132.7,320.2,2268.4,2985.6,136.5,77.1
0.095156,322.0,128.6,2277.3,97.4,2958.6,148.5,321.9,2271.6,2978.2,136.2,77
0.097156,324.6,134.5,2276.0,76.5,2955.0,167.4,323.6,2274.6,2969.2,136,76.9
0.099156,327.3,136.0,2274.2,63.1,2955.0,180.1,325.3,2277,2958.6,135.8,76.8
0.101156,329.2,135.6,2271.0,57.2,2950.8,186.0,327.1,2278.2,2946.2,135.6,76.7
0.103156,330.4,134.8,2265.8,57.6,2937.6,184.8,329,2277.9,2932,135.3,76.6
0.105156,331.8,130.9,2258.9,61.3,2921.4,178.7,331,2275.6,2916,135.1,76.5
0.107156,333.5,125.6,2250.6,65.4,2907.1,174.6,333.3,2270.7,2898.1,134.9,76.3
0.109156,335.6,123.7,2240.8,69.5,2893.5,175.9,335.9,2262.9,2878.6,134.6,76.2
0.111156,338.3,123.1,2230.5,73.3,2880.2,181.8,338.7,2251.8,2857.3,134.4,76.2
0.113156,341.4,117.2,2221.0,77.4,2866.0,192.1,341.9,2237.2,2834.7,134.2,76.1
0.115156,344.5,106.8,2210.5,86.9,2846.3,211.2,345.5,2218.9,2810.7,134,76
0.117156,348.0,95.6,2195.4,109.0,2815.3,240.8,349.6,2196.9,2785.8,133.7,76
0.119156,352.5,83.4,2173.6,142.8,2774.7,270.4,353.9,2171.4,2760.2,133.5,75.9
0.121156,357.5,71.1,2146.8,174.4,2732.1,288.8,358.7,2142.6,2734.2,133.3,75.8
0.123156,363.0,62.5,2117.6,195.1,2692.5,293.9,363.8,2111.1,2708.1,133.1,75.8
0.125156,369.0,57.2,2085.8,208.8,2656.0,292.1,369,2077.4,2682.3,132.8,75.7
0.127156,374.9,51.6,2053.5,219.4,2620.9,288.6,374.5,2042.3,2657.3,132.6,75.7
0.129156,380.8,45.8,2023.1,227.6,2590.6,280.7,379.9,2006.5,2633.2,132.4,75.6
0.131156,387.1,43.0,1993.3,232.8,2568.5,273.3,385.3,1971,2610.6,132.2,75.6
0.133156,392.9,43.1,1965.9,234.1,2551.6,271.0,390.5,1936.7,2589.7,132,75.5
0.135156,397.3,43.2,1946.2,236.0,2542.5,258.3,395.3,1904.6,2570.9,131.8,75.4
0.137156,400.6,42.0,1929.1,248.4,2541.9,224.1,399.6,1875.5,2554.5,131.6,75.3
0.139156,403.3,42.1,1902.7,279.8,2544.5,177.1,403.4,1850.5,2540.6,131.4,75.1
0.141156,404.9,45.6,1858.1,322.6,2547.7,131.8,406.4,1830.1,2529.6,131.2,74.8
0.143156,406.1,51.1,1799.6,342.5,2551.2,100.7,408.6,1815.1,2521.7,131,74.4
0.145156,408.3,56.5,1737.4,318.0,2554.8,85.4,410,1806,2516.8,130.9,74
0.147156,411.7,63.4,1678.4,264.8,2559.1,83.2,410.5,1802.9,2515.2,130.7,73.5
