time,f1,b1,f2,b2,f3,b3,f1p,f2p,f3p,f0,intensity
0.025617,388.0,137.2,1901.6,208.7,2697.9,197.5,380.8,1955.3,2745.8,112.2,68.1
0.027617,387.7,126.5,1927.1,200.1,2722.9,247.6,379,1957.1,2750.8,112.3,68.4
0.029617,383.0,121.6,1954.0,181.3,2764.6,301.8,375.9,1960,2759.2,112.4,68.6
0.031617,376.3,117.3,1970.4,154.4,2799.2,303.9,371.8,1964,2770.5,112.4,68.8
0.033617,370.0,113.2,1978.3,132.9,2814.2,272.6,366.7,1969.2,2784.7,112.5,68.9
0.035617,362.6,113.2,1985.5,121.7,2821.2,239.6,360.8,1975.4,2801.2,112.6,69
0.037617,350.6,117.6,1998.2,124.1,2831.8,216.2,354.2,1982.6,2819.8,112.6,69
0.039617,336.2,116.9,2017.2,136.2,2848.2,203.5,347.1,1990.6,2839.9,112.7,69.1
0.041617,325.6,107.6,2032.7,144.8,2863.7,197.2,339.8,1999.5,2861.2,112.7,69.2
0.043617,318.7,98.7,2038.2,148.4,2877.9,197.9,332.2,2009,2883.1,112.8,69.3
0.045617,313.3,94.5,2039.2,156.7,2898.1,205.7,324.8,2019,2905.2,112.8,69.5
0.047617,309.2,90.5,2043.2,167.0,2922.1,204.0,317.5,2029.3,2926.9,112.9,69.7
0.049617,306.6,82.8,2048.5,165.7,2940.7,186.8,310.7,2039.8,2948,112.9,69.8
0.051617,304.6,73.9,2050.1,153.3,2957.1,165.1,304.3,2050.2,2968,113,69.9
0.053617,302.8,65.7,2047.3,141.1,2980.2,144.9,298.6,2060.3,2986.6,113,69.9
0.055617,300.8,58.2,2044.0,134.8,3006.6,124.8,293.5,2070,3003.5,113,69.9
0.057617,298.3,51.7,2046.2,134.4,3023.0,110.5,289.2,2079.1,3018.6,113,69.8
0.059617,295.1,47.5,2055.1,142.0,3031.6,109.8,285.6,2087.4,3031.7,113,69.8
0.061617,291.5,47.0,2069.0,163.9,3039.9,122.2,282.7,2094.7,3042.8,113,69.8
0.063617,287.7,50.1,2088.9,197.5,3050.5,134.9,280.4,2101,3052,113,69.8
0.065617,284.0,51.6,2109.2,216.8,3060.6,132.6,278.8,2106.3,3059.3,113,69.9
0.067617,280.9,47.4,2116.6,201.9,3066.3,121.8,277.6,2110.5,3064.9,113,69.9
0.069617,278.3,42.6,2117.5,175.2,3069.6,114.4,276.7,2113.7,3069,112.9,69.9
0.071617,276.3,41.4,2122.5,157.7,3073.1,113.9,276.2,2115.8,3071.9,112.9,69.9
0.073617,274.4,42.8,2130.8,149.0,3077.0,113.0,275.7,2117.2,3073.7,112.9,69.8
0.075617,272.2,42.3,2134.3,140.6,3079.6,106.6,275.3,2117.8,3074.8,112.9,69.8
0.077617,269.9,39.1,2130.9,132.9,3080.0,99.7,274.8,2117.9,3075.3,112.9,69.7
0.079617,267.9,36.6,2124.8,132.1,3077.1,94.5,274.2,2117.7,3075.6,112.9,69.6
0.081617,266.2,36.9,2120.7,141.0,3071.4,87.2,273.3,2117.3,3075.7,112.8,69.5
0.083617,264.7,38.1,2119.9,150.7,3068.1,76.5,272.3,2116.8,3075.9,112.8,69.5
0.085617,264.0,36.8,2118.9,151.5,3069.3,69.5,271,2116.5,3076.1,112.8,69.6
0.087617,264.3,35.0,2117.8,148.1,3073.3,71.3,269.6,2116.4,3076.4,112.8,69.7
0.089617,265.3,36.3,2119.0,144.7,3078.3,78.4,268,2116.6,3076.7,112.9,69.8
0.091617,266.2,39.8,2120.6,137.6,3082.0,80.4,266.6,2117,3076.9,112.9,70
0.093617,266.5,42.1,2119.9,126.3,3084.0,76.0,265.2,2117.6,3076.9,112.9,70.1
0.095617,266.7,44.2,2118.4,113.6,3084.2,71.0,264.2,2118.4,3076.4,113,70.3
0.097617,267.7,49.9,2117.4,100.9,3080.4,68.3,263.7,2119.1,3075.2,113,70.5
0.099617,269.3,57.4,2115.6,89.5,3071.9,68.1,263.8,2119.6,3073,113.1,70.6
0.101617,270.7,57.5,2111.9,81.5,3063.9,69.0,264.8,2119.7,3069.5,113.1,70.7
0.103617,272.0,50.0,2106.9,77.4,3058.1,73.1,266.7,2119.1,3064.6,113.2,70.9
0.105617,274.8,44.8,2102.0,78.3,3051.4,83.5,269.7,2117.7,3057.9,113.3,71
0.107617,280.0,45.6,2097.8,82.5,3042.1,95.3,273.8,2115.1,3049.4,113.4,71.2
0.109617,286.0,48.0,2094.9,82.9,3034.2,96.9,279.2,2111.3,3038.9,113.5,71.4
0.111617,290.5,47.3,2094.1,79.0,3028.9,91.8,285.8,2106.1,3026.3,113.6,71.5
0.113617,295.0,46.0,2095.9,77.5,3020.9,90.7,293.6,2099.5,3011.8,113.7,71.7
0.115617,302.5,47.3,2098.7,84.7,3002.5,100.9,302.5,2091.5,2995.6,113.7,71.9
0.117617,312.4,48.4,2097.6,96.5,2974.6,116.2,312.3,2082.1,2977.8,113.8,72.1
0.119617,320.4,46.7,2090.0,98.0,2953.2,119.3,322.9,2071.6,2958.7,113.9,72.3
0.121617,326.0,47.1,2078.0,87.5,2940.2,116.3,333.9,2060.1,2938.8,114,72.5
0.123617,332.9,55.2,2063.2,75.7,2922.1,121.9,345.2,2047.9,2918.5,114.1,72.6
0.125617,343.6,66.3,2048.0,68.5,2895.1,139.5,356.5,2035.6,2898.4,114.2,72.8
0.127617,355.7,67.0,2035.3,63.1,2873.2,156.7,367.4,2023.3,2878.9,114.2,72.9
0.129617,366.2,59.6,2025.3,57.8,2863.3,167.3,377.6,2011.5,2860.7,114.3,73
0.131617,376.0,55.5,2014.3,56.0,2858.3,183.5,386.8,2000.7,2844.2,114.3,72.9
0.133617,386.3,63.7,1999.2,60.9,2848.9,212.7,394.8,1991.3,2829.9,114.4,72.8
0.135617,397.4,84.6,1981.9,69.7,2832.3,233.7,401.3,1983.5,2818.4,114.4,72.7
0.137617,409.3,103.5,1967.4,76.7,2815.8,230.4,406.1,1977.7,2809.8,114.4,72.7
0.139617,425.0,106.2,1953.8,86.7,2796.1,224.4,409,1974.2,2804.6,114.4,72.8
0.141617,446.4,102.9,1932.4,112.8,2765.6,221.9,410,1973,2802.8,114.5,73.2
