time,f1,b1,f2,b2,f3,b3,f1p,f2p,f3p,f0,intensity
0.025778,652.0,69.5,1323.9,66.1,2343.6,136.0,668.5,1349.7,2558,160.4,79.5
0.027778,653.7,73.3,1327.5,71.7,2359.7,153.8,668.6,1349.6,2558.1,160.5,79.4
0.029778,655.5,79.5,1331.1,77.2,2383.4,192.5,668.6,1349.5,2558.4,160.6,79.4
0.031778,656.8,84.5,1334.2,80.3,2408.3,239.4,668.6,1349.4,2558.7,160.7,79.4
0.033778,657.3,86.7,1335.6,81.0,2424.9,276.0,668.7,1349.2,2559.1,160.8,79.4
0.035778,657.2,87.4,1335.6,81.1,2431.6,295.4,668.8,1349,2559.6,160.9,79.3
0.037778,657.5,87.9,1335.3,81.3,2434.0,303.4,668.9,1348.8,2560.1,161,79.3
0.039778,658.6,89.1,1335.4,80.8,2436.5,312.1,669,1348.5,2560.8,161.1,79.2
0.041778,660.1,91.2,1335.6,79.6,2440.4,328.7,669.1,1348.2,2561.5,161.3,79.1
0.043778,661.6,94.2,1335.5,77.7,2445.3,347.1,669.2,1347.8,2562.4,161.4,79.1
0.045778,662.7,97.6,1334.5,75.2,2449.7,356.6,669.3,1347.4,2563.3,161.5,79
0.047778,663.2,101.2,1332.8,72.3,2451.0,354.3,669.5,1347,2564.3,161.7,79
0.049778,663.5,104.4,1330.8,69.1,2448.8,343.8,669.7,1346.6,2565.4,161.8,78.9
0.051778,663.9,107.3,1329.1,66.0,2447.2,331.3,669.8,1346.1,2566.6,162,78.8
0.053778,664.2,110.6,1327.9,63.8,2448.1,320.9,670,1345.5,2567.9,162.2,78.7
0.055778,664.3,112.4,1327.5,62.2,2447.2,310.0,670.2,1345,2569.2,162.3,78.7
0.057778,664.0,110.4,1328.3,60.4,2441.7,298.5,670.5,1344.4,2570.6,162.5,78.6
0.059778,663.4,104.9,1329.8,58.3,2435.0,292.0,670.7,1343.7,2572.1,162.7,78.5
0.061778,662.7,99.2,1331.5,57.3,2433.7,294.4,670.9,1343,2573.7,162.9,78.5
0.063778,662.3,95.4,1333.4,58.5,2441.0,304.7,671.2,1342.3,2575.4,163,78.4
0.065778,662.0,93.3,1335.5,61.9,2453.3,317.4,671.4,1341.6,2577.1,163.2,78.4
0.067778,662.1,91.4,1338.3,66.4,2463.7,323.0,671.7,1340.8,2578.9,163.4,78.4
0.069778,662.7,88.9,1342.0,70.0,2470.2,315.6,672,1340,2580.8,163.6,78.4
0.071778,663.7,86.9,1346.5,72.0,2479.2,302.3,672.3,1339.2,2582.8,163.8,78.4
0.073778,665.1,86.7,1351.3,73.3,2497.9,295.1,672.6,1338.3,2584.8,163.9,78.4
0.075778,666.5,87.7,1355.2,73.6,2525.8,296.8,672.9,1337.4,2586.9,164.1,78.4
0.077778,667.6,89.1,1357.6,72.3,2558.9,300.9,673.3,1336.4,2589.1,164.3,78.4
0.079778,668.6,91.1,1358.5,69.9,2593.2,299.1,673.6,1335.5,2591.3,164.4,78.5
0.081778,669.5,93.3,1358.2,66.4,2624.8,289.6,673.9,1334.4,2593.6,164.6,78.5
0.083778,670.6,94.7,1357.1,61.7,2651.3,278.9,674.3,1333.4,2596,164.7,78.5
0.085778,671.9,95.5,1355.3,56.3,2669.8,272.9,674.7,1332.3,2598.4,164.9,78.6
0.087778,673.7,97.2,1353.6,51.5,2679.1,270.6,675,1331.2,2600.9,165,78.6
0.089778,676.5,101.4,1351.9,48.3,2682.9,268.2,675.4,1330.1,2603.4,165.2,78.7
0.091778,679.9,108.1,1350.3,46.4,2684.4,263.1,675.8,1328.9,2606,165.3,78.7
0.093778,683.2,115.4,1348.7,45.1,2684.4,254.8,676.2,1327.7,2608.7,165.4,78.8
0.095778,685.8,122.8,1347.1,44.2,2683.1,246.1,676.6,1326.5,2611.4,165.5,78.8
0.097778,687.9,130.2,1346.0,44.0,2681.3,241.7,677,1325.3,2614.1,165.6,78.8
0.099778,689.7,136.9,1346.2,45.0,2681.3,243.0,677.5,1324,2616.9,165.7,78.8
0.101778,691.1,141.4,1347.3,46.9,2685.4,247.6,677.9,1322.7,2619.8,165.8,78.8
0.103778,691.9,142.9,1348.7,49.0,2694.6,251.8,678.3,1321.3,2622.7,165.9,78.7
0.105778,692.3,141.2,1349.7,50.8,2708.4,253.3,678.8,1320,2625.6,166,78.7
0.107778,692.1,137.2,1350.3,51.9,2724.9,252.1,679.2,1318.6,2628.6,166,78.6
0.109778,691.7,132.3,1350.2,52.7,2740.2,247.8,679.7,1317.1,2631.6,166.1,78.6
0.111778,691.4,127.3,1349.3,53.3,2751.5,239.2,680.1,1315.7,2634.7,166.2,78.5
0.113778,691.2,122.9,1347.7,54.0,2758.5,228.0,680.6,1314.2,2637.7,166.3,78.4
0.115778,690.9,119.5,1345.7,55.0,2761.4,217.0,681.1,1312.7,2640.9,166.3,78.2
0.117778,690.7,117.5,1343.1,56.6,2760.8,206.5,681.5,1311.2,2644,166.4,78.1
0.119778,690.3,117.8,1340.4,59.3,2758.6,197.1,682,1309.7,2647.2,166.5,77.9
0.121778,689.9,120.3,1337.9,63.6,2757.4,190.6,682.5,1308.1,2650.4,166.6,77.7
0.123778,690.1,123.5,1336.6,69.7,2759.1,187.5,683,1306.5,2653.6,166.7,77.5
0.125778,690.9,125.4,1336.8,76.8,2765.0,184.4,683.4,1304.9,2656.8,166.8,77.3
0.127778,691.8,125.0,1337.8,83.6,2774.8,176.5,683.9,1303.3,2660.1,166.8,77.2
0.129778,692.6,122.4,1337.7,88.7,2786.0,162.7,684.4,1301.6,2663.4,166.9,77
0.131778,693.4,119.6,1336.2,92.3,2795.9,147.6,684.9,1299.9,2666.7,167,77
0.133778,694.6,118.7,1334.0,95.0,2802.6,137.1,685.4,1298.2,2670,167.1,76.9
0.135778,696.5,119.9,1331.8,96.9,2806.0,134.1,685.9,1296.5,2673.3,167.2,76.9
0.137778,699.0,123.1,1329.6,98.0,2808.3,137.9,686.4,1294.8,2676.6,167.3,77
0.139778,701.8,127.6,1327.3,98.7,2810.9,143.3,686.9,1293,2679.9,167.4,77
0.141778,704.4,132.7,1325.2,99.7,2812.8,142.9,687.3,1291.3,2683.2,167.5,77.1
0.143778,706.6,137.8,1323.1,101.5,2812.5,135.6,687.8,1289.5,2686.6,167.6,77.1
0.145778,708.1,141.3,1319.8,102.6,2811.0,124.6,688.3,1287.7,2689.9,167.7,77.2
0.147778,708.8,141.6,1314.5,102.0,2810.3,113.0,688.8,1285.9,2693.2,167.9,77.2
0.149778,708.8,138.9,1307.7,100.8,2811.4,103.2,689.3,1284,2696.5,167.9,77.2
0.151778,708.2,135.1,1299.9,99.8,2813.0,95.3,689.8,1282.2,2699.8,168,77.3
0.153778,707.4,131.5,1291.4,99.3,2814.1,88.9,690.3,1280.3,2703.1,168.1,77.3
0.155778,706.5,129.1,1282.2,99.5,2814.1,85.2,690.7,1278.4,2706.4,168.2,77.3
0.157778,705.4,127.0,1272.9,99.2,2812.2,84.9,691.2,1276.5,2709.7,168.3,77.4
0.159778,704.0,124.0,1263.6,97.0,2806.5,86.3,691.7,1274.6,2712.9,168.4,77.4
0.161778,702.0,120.8,1254.5,93.3,2797.2,88.0,692.2,1272.7,2716.2,168.4,77.4
0.163778,700.0,117.5,1246.5,88.9,2787.6,88.9,692.6,1270.8,2719.4,168.5,77.4
0.165778,698.4,113.5,1240.0,83.6,2782.1,89.0,693.1,1268.9,2722.6,168.5,77.5
0.167778,697.6,110.1,1234.9,78.7,2782.0,87.7,693.5,1266.9,2725.7,168.5,77.5
0.169778,697.2,107.8,1230.6,74.1,2784.6,85.3,694,1265,2728.9,168.5,77.5
0.171778,696.7,105.9,1226.1,69.1,2786.3,84.0,694.4,1263,2732,168.5,77.5
0.173778,696.2,104.8,1222.0,64.4,2786.3,86.6,694.9,1261.1,2735,168.5,77.6
0.175778,696.2,106.1,1219.1,61.7,2785.0,93.1,695.3,1259.1,2738.1,168.5,77.6
0.177778,697.1,110.2,1217.3,61.2,2783.0,100.6,695.8,1257.1,2741.1,168.4,77.6
0.179778,698.7,115.8,1215.8,61.8,2781.1,106.2,696.2,1255.1,2744.1,168.3,77.6
0.181778,700.3,120.2,1214.0,62.1,2781.7,106.9,696.6,1253.1,2747,168.3,77.6
0.183778,701.2,121.5,1211.7,61.2,2786.8,101.9,697,1251.1,2749.9,168.1,77.6
0.185778,701.2,121.3,1209.2,59.8,2794.2,93.8,697.4,1249.1,2752.8,168,77.6
0.187778,701.3,122.9,1207.4,59.4,2799.0,87.1,697.8,1247.1,2755.6,167.8,77.6
0.189778,702.5,129.2,1206.9,61.0,2799.4,83.9,698.2,1245.1,2758.3,167.7,77.5
0.191778,704.2,138.8,1206.7,63.3,2798.2,82.5,698.6,1243.1,2761,167.4,77.5
0.193778,705.0,145.8,1205.6,63.6,2799.5,79.3,699,1241.1,2763.7,167.2,77.5
0.195778,703.8,146.7,1202.9,60.8,2804.8,72.7,699.4,1239.1,2766.3,166.9,77.4
0.197778,701.5,144.1,1199.7,56.6,2812.6,64.6,699.7,1237.1,2768.9,166.5,77.4
0.199778,700.1,141.5,1197.1,52.8,2819.7,58.9,700.1,1235.1,2771.4,166.1,77.4
0.201778,699.8,139.9,1195.6,49.7,2824.8,59.0,700.4,1233.1,2773.9,165.6,77.4
0.203778,700.0,138.7,1194.5,47.2,2828.3,65.4,700.8,1231.1,2776.3,165.1,77.4
0.205778,699.9,137.3,1193.4,45.2,2830.6,74.3,701.1,1229.1,2778.7,164.4,77.3
0.207778,699.5,136.1,1192.1,43.8,2830.6,80.7,701.4,1227.1,2781,163.7,77.3
0.209778,698.7,135.1,1190.7,43.2,2827.3,81.8,701.7,1225.1,2783.2,162.9,77.2
0.211778,697.6,132.1,1188.9,42.4,2820.9,79.2,702,1223.2,2785.4,162,77.1
0.213778,695.5,126.4,1186.0,40.9,2811.9,75.1,702.3,1221.2,2787.5,160.9,76.9
0.215778,692.6,120.4,1182.2,39.4,2801.6,70.4,702.6,1219.2,2789.6,159.7,76.8
0.217778,690.4,115.7,1178.6,38.6,2792.9,65.9,702.9,1217.2,2791.6,158.4,76.6
0.219778,689.7,112.4,1176.0,38.2,2787.9,62.3,703.2,1215.3,2793.5,157,76.3
0.221778,690.3,110.6,1174.3,38.3,2785.9,60.8,703.4,1213.3,2795.4,155.4,76.2
0.223778,691.2,109.8,1173.0,38.8,2784.3,63.1,703.7,1211.4,2797.2,153.7,76
0.225778,691.3,109.6,1171.6,39.6,2781.8,69.7,703.9,1209.5,2799,151.8,75.8
0.227778,690.5,110.1,1169.7,40.1,2778.8,78.6,704.1,1207.6,2800.7,149.7,75.7
0.229778,689.1,109.2,1167.7,39.4,2775.6,86.5,704.4,1205.7,2802.3,147.6,75.5
0.231778,687.6,106.3,1165.7,37.6,2773.3,91.1,704.6,1203.8,2803.8,145.2,75.4
0.233778,686.5,105.6,1164.7,36.3,2774.0,93.0,704.8,1201.9,2805.3,142.8,75.3
0.235778,686.8,110.4,1165.4,37.1,2777.8,96.0,705,1200,2806.7,140.2,75.3
0.237778,688.3,119.0,1167.8,39.6,2781.5,105.6,705.2,1198.1,2808.1,137.5,75.3
0.239778,689.5,125.7,1170.1,41.6,2782.1,123.5,705.3,1196.3,2809.4,134.7,75.3
0.241778,689.3,125.0,1170.6,40.8,2779.6,142.5,705.5,1194.5,2810.6,131.9,75.3
0.243778,687.4,117.5,1169.5,37.3,2775.9,153.4,705.7,1192.7,2811.8,129,75.3
0.245778,685.2,109.5,1168.8,33.8,2771.4,158.1,705.8,1190.9,2812.8,126,75.3
0.247778,685.1,107.5,1171.0,33.5,2766.4,162.9,706,1189.1,2813.9,123.1,75.4
0.249778,688.0,111.8,1176.6,37.2,2765.8,163.5,706.1,1187.3,2814.8,120.1,75.5
0.251778,692.1,116.8,1182.4,42.5,2772.3,154.5,706.2,1185.6,2815.7,117.2,75.5
0.253778,695.0,117.9,1184.2,45.8,2779.7,143.4,706.3,1183.8,2816.5,114.4,75.6
0.255778,695.4,116.8,1181.7,45.8,2783.1,139.3,706.4,1182.1,2817.3,111.6,75.7
0.257778,694.0,118.4,1179.0,45.1,2780.6,147.7,706.5,1180.4,2818,109,75.7
0.259778,693.6,125.2,1181.7,48.1,2775.1,159.1,706.6,1178.7,2818.6,106.4,75.8
0.261778,696.2,131.5,1190.1,55.7,2775.3,151.1,706.7,1177.1,2819.1,104,75.9
0.263778,699.4,129.2,1197.9,62.8,2777.5,135.1,706.8,1175.4,2819.6,101.7,76
0.265778,701.2,122.0,1198.9,65.5,2778.4,122.4,706.8,1173.8,2820,99.5,76.1
0.267778,700.8,116.7,1192.7,64.1,2777.8,114.9,706.9,1172.2,2820.4,97.5,76.1
0.269778,698.0,115.4,1184.7,61.1,2774.1,115.4,706.9,1170.6,2820.7,95.7,76
0.271778,694.8,117.3,1181.4,59.8,2762.8,127.5,707,1169.1,2820.9,94,75.9
0.273778,693.3,119.6,1184.2,61.8,2744.6,145.5,707,1167.6,2821.1,92.5,75.8
0.275778,693.6,120.5,1187.9,64.9,2736.3,148.5,707,1166,2821.2,91.1,75.8
0.277778,694.4,120.2,1186.2,64.9,2739.0,138.3,707,1164.6,2821.3,89.8,75.8
0.279778,693.8,118.9,1179.2,60.2,2739.7,129.7,707.1,1163.1,2821.3,88.7,75.8
0.281778,691.7,117.7,1172.4,53.7,2733.2,129.6,707.1,1161.7,2821.2,87.7,75.8
0.283778,689.9,118.1,1170.7,50.3,2722.3,137.9,707.1,1160.2,2821.1,86.8,75.9
0.285778,690.4,120.6,1174.2,51.2,2718.7,142.5,707.1,1158.8,2820.9,86.1,75.9
0.287778,692.8,122.9,1177.6,53.8,2724.5,135.0,707,1157.5,2820.7,85.4,76
0.289778,695.4,123.6,1175.8,55.0,2731.9,122.7,707,1156.1,2820.4,84.9,76
0.291778,696.7,123.6,1167.8,53.5,2736.3,112.1,707,1154.8,2820.1,84.4,76
0.293778,695.7,124.4,1157.6,50.5,2735.3,106.7,707,1153.5,2819.7,83.9,75.9
0.295778,693.6,128.5,1151.2,50.1,2728.9,110.5,706.9,1152.2,2819.3,83.6,75.8
0.297778,693.9,137.8,1152.4,56.5,2725.6,119.5,706.9,1151,2818.8,83.3,75.7
0.299778,697.0,145.4,1158.0,66.9,2730.9,122.0,706.8,1149.8,2818.2,83,75.6
0.301778,700.8,145.5,1160.0,73.9,2739.7,116.0,706.8,1148.6,2817.7,82.8,75.5
0.303778,704.3,141.9,1154.5,74.3,2748.4,107.2,706.7,1147.4,2817,82.6,75.4
0.305778,707.1,141.5,1145.0,71.6,2754.9,100.6,706.7,1146.3,2816.4,82.4,75.3
0.307778,711.4,154.0,1139.9,76.4,2755.4,100.1,706.6,1145.2,2815.7,82.3,75.2
0.309778,720.0,181.2,1145.8,98.6,2753.1,100.9,706.6,1144.1,2814.9,82.2,75.1
0.311778,728.7,198.1,1159.7,130.0,2755.6,96.1,706.5,1143,2814.1,82.1,75.1
0.313778,733.0,191.4,1169.7,148.3,2761.7,88.2,706.4,1142,2813.3,82,75
0.315778,734.8,173.5,1170.0,150.2,2769.0,80.9,706.3,1141,2812.4,81.9,75
0.317778,735.2,151.8,1162.2,142.0,2776.1,76.9,706.3,1140,2811.5,81.9,74.9
0.319778,734.5,135.9,1155.1,137.6,2778.7,81.7,706.2,1139,2810.6,81.8,74.9
0.321778,734.3,134.2,1160.5,151.7,2772.3,92.3,706.1,1138.1,2809.6,81.8,74.9
0.323778,734.3,139.2,1175.3,172.0,2768.5,90.5,706,1137.2,2808.7,81.7,74.9
0.325778,734.1,139.5,1182.1,176.0,2772.5,81.3,705.9,1136.4,2807.6,81.7,75
0.327778,734.3,132.2,1175.0,162.7,2779.0,73.2,705.9,1135.5,2806.6,81.7,75
0.329778,733.9,120.8,1159.2,141.6,2784.9,68.4,705.8,1134.7,2805.5,81.7,75
0.331778,731.6,111.5,1145.2,124.6,2786.6,71.5,705.7,1133.9,2804.4,81.7,75
0.333778,729.1,113.0,1146.0,127.6,2778.0,88.2,705.6,1133.2,2803.3,81.6,75
0.335778,728.2,122.7,1161.5,147.5,2767.4,101.5,705.5,1132.4,2802.2,81.6,74.9
0.337778,728.6,129.1,1175.1,161.9,2768.9,98.4,705.4,1131.7,2801,81.6,74.9
0.339778,729.7,128.4,1174.5,159.1,2775.7,92.1,705.3,1131,2799.9,81.7,74.9
0.341778,729.7,122.6,1160.9,141.4,2781.4,90.8,705.3,1130.4,2798.7,81.7,74.8
0.343778,727.2,116.2,1145.6,121.2,2781.6,100.1,705.2,1129.8,2797.5,81.7,74.7
0.345778,723.2,114.9,1142.1,115.0,2767.1,125.1,705.1,1129.2,2796.3,81.7,74.7
0.347778,719.5,116.4,1152.2,122.4,2743.3,142.9,705,1128.6,2795.1,81.8,74.7
0.349778,717.7,115.2,1162.1,127.9,2736.0,136.7,704.9,1128.1,2793.9,81.8,74.7
0.351778,718.5,112.5,1158.9,121.1,2742.5,123.1,704.8,1127.6,2792.6,81.9,74.7
0.353778,719.0,108.2,1144.3,101.6,2752.4,112.2,704.8,1127.1,2791.4,82,74.7
0.355778,717.1,102.6,1129.7,80.6,2761.8,106.0,704.7,1126.6,2790.2,82.1,74.7
0.357778,714.3,102.1,1126.1,73.6,2765.6,105.0,704.6,1126.2,2788.9,82.3,74.7
0.359778,713.1,107.4,1135.0,83.9,2764.0,104.5,704.6,1125.7,2787.7,82.4,74.6
0.361778,713.6,109.5,1147.1,98.8,2764.4,101.4,704.5,1125.4,2786.5,82.7,74.6
0.363778,716.4,110.5,1150.2,105.3,2770.0,97.0,704.4,1125,2785.3,83,74.5
0.365778,720.1,114.7,1141.6,99.4,2779.9,94.9,704.4,1124.7,2784,83.3,74.5
0.367778,721.8,120.9,1130.6,87.2,2793.0,98.5,704.3,1124.4,2782.8,83.7,74.4
0.369778,720.6,128.4,1127.7,80.8,2807.1,108.1,704.2,1124.1,2781.6,84.2,74.3
0.371778,717.6,133.4,1135.4,85.1,2813.8,117.1,704.2,1123.8,2780.4,84.7,74.2
0.373778,714.2,128.5,1147.1,92.7,2810.2,119.0,704.2,1123.6,2779.2,85.4,74.1
0.375778,712.9,117.1,1152.0,93.5,2803.6,114.9,704.1,1123.3,2778.1,86.2,74
0.377778,714.4,107.4,1146.1,84.2,2799.4,108.3,704.1,1123.2,2776.9,87.1,74
0.379778,716.4,101.1,1135.6,69.5,2797.0,102.2,704,1123,2775.8,88.1,73.9
0.381778,717.0,101.5,1130.6,59.9,2794.0,102.5,704,1122.8,2774.7,89.2,73.8
0.383778,715.4,110.9,1133.5,59.9,2787.9,113.4,704,1122.7,2773.6,90.5,73.7
0.385778,712.7,124.1,1139.6,65.2,2780.8,129.9,704,1122.6,2772.5,92,73.6
0.387778,711.3,134.3,1143.6,70.3,2776.9,144.8,703.9,1122.5,2771.4,93.6,73.4
0.389778,712.5,142.1,1143.1,73.2,2776.5,159.9,703.9,1122.5,2770.4,95.3,73.3
0.391778,714.7,150.5,1139.6,74.2,2775.6,181.5,703.9,1122.4,2769.4,97.2,73.2
0.393778,714.2,155.8,1135.7,71.9,2772.6,209.2,703.9,1122.4,2768.4,99.3,73
0.395778,708.5,152.7,1132.9,65.4,2772.5,235.4,703.9,1122.4,2767.4,101.5,72.9
0.397778,700.1,144.7,1131.0,57.8,2780.9,264.6,703.9,1122.4,2766.5,103.8,72.7
0.399778,693.5,139.0,1129.7,53.0,2794.0,314.1,703.9,1122.4,2765.6,106.2,72.5
0.401778,691.6,137.2,1129.2,52.1,2800.9,381.1,704,1122.5,2764.7,108.8,72.4
0.403778,692.4,135.0,1129.0,52.9,2794.9,406.8,704,1122.6,2763.9,111.5,72.2
0.405778,693.0,129.9,1128.8,53.0,2796.3,365.0,704,1122.7,2763.1,114.2,72.1
0.407778,691.5,125.4,1128.8,51.9,2816.9,315.2,704,1122.8,2762.3,117,71.9
0.409778,687.2,124.0,1128.7,49.9,2843.3,286.1,704.1,1122.9,2761.6,119.8,71.8
0.411778,681.9,124.3,1128.3,47.5,2858.2,274.9,704.1,1123,2760.9,122.6,71.7
0.413778,678.1,121.5,1127.5,45.7,2848.5,272.0,704.2,1123.2,2760.2,125.5,71.6
0.415778,675.7,112.7,1125.5,44.1,2819.4,265.5,704.2,1123.3,2759.6,128.2,71.5
0.417778,675.2,101.5,1122.5,42.7,2794.6,252.6,704.3,1123.5,2759,131,71.4
0.419778,676.8,95.4,1120.8,42.5,2801.8,241.5,704.4,1123.7,2758.4,133.6,71.2
0.421778,679.0,96.6,1121.7,42.9,2836.8,234.1,704.4,1123.9,2757.9,136.2,71.1
0.423778,679.5,101.3,1124.2,42.4,2868.7,226.3,704.5,1124.1,2757.5,138.6,71
0.425778,677.6,104.9,1126.4,41.4,2881.6,219.1,704.6,1124.4,2757,140.9,70.9
0.427778,673.8,105.3,1127.3,40.7,2877.9,215.7,704.7,1124.6,2756.6,143.1,70.8
0.429778,670.1,104.5,1126.7,41.2,2863.4,219.1,704.8,1124.9,2756.3,145.1,70.8
0.431778,669.2,106.6,1126.0,43.9,2839.0,229.4,704.9,1125.1,2756,147,70.7
0.433778,671.3,115.9,1126.1,49.6,2800.2,241.0,705,1125.4,2755.7,148.7,70.7
0.435778,675.2,133.3,1127.4,58.1,2752.3,242.9,705.1,1125.7,2755.5,150.2,70.6
0.437778,680.0,156.3,1129.8,68.9,2715.1,238.1,705.2,1126,2755.3,151.6,70.6
0.439778,685.2,184.4,1132.8,81.5,2697.0,241.8,705.3,1126.3,2755.1,152.8,70.6
0.441778,688.9,211.7,1134.9,92.7,2691.6,258.2,705.4,1126.6,2755,153.9,70.5
0.443778,689.5,224.1,1135.5,96.5,2693.2,278.0,705.6,1126.9,2755,154.8,70.5
0.445778,686.4,213.9,1134.8,91.4,2705.3,292.0,705.7,1127.2,2755,155.6,70.4
0.447778,681.8,186.7,1132.5,80.5,2739.0,292.3,705.8,1127.5,2755,156.3,70.4
0.449778,678.4,155.4,1129.1,68.7,2793.9,268.1,705.9,1127.9,2755.1,156.8,70.4
0.451778,677.0,130.7,1125.4,59.8,2842.6,219.8,706.1,1128.2,2755.2,157.2,70.3
0.453778,677.2,119.3,1121.7,56.6,2863.6,175.6,706.2,1128.5,2755.3,157.6,70.3
0.455778,678.8,117.5,1118.4,58.2,2859.5,151.0,706.4,1128.9,2755.5,157.8,70.3
0.457778,680.8,116.5,1115.2,60.8,2839.8,139.6,706.5,1129.2,2755.8,158,70.3
0.459778,682.1,111.5,1111.5,61.1,2814.1,132.1,706.7,1129.6,2756.1,158.1,70.3
0.461778,682.6,102.8,1107.6,58.9,2792.2,125.6,706.8,1129.9,2756.4,158.1,70.4
0.463778,683.1,95.9,1103.9,57.3,2781.4,120.8,707,1130.2,2756.8,158.1,70.5
0.465778,684.2,94.8,1100.3,58.9,2783.0,118.4,707.2,1130.6,2757.2,158.1,70.5
0.467778,686.9,97.6,1097.4,63.6,2793.2,117.3,707.3,1130.9,2757.6,158,70.6
0.469778,692.1,99.8,1095.2,71.0,2807.8,116.9,707.5,1131.3,2758.1,157.9,70.5
0.471778,698.7,100.2,1092.3,81.0,2823.9,117.2,707.6,1131.6,2758.7,157.7,70.5
0.473778,704.5,99.9,1088.1,91.6,2835.1,119.0,707.8,1132,2759.3,157.6,70.4
0.475778,708.7,99.1,1083.7,102.2,2837.1,125.3,708,1132.3,2759.9,157.4,70.4
0.477778,712.0,98.9,1080.2,111.8,2828.6,140.1,708.2,1132.7,2760.5,157.1,70.3
0.479778,714.9,98.6,1078.4,117.5,2813.0,164.6,708.3,1133,2761.2,156.9,70.4
0.481778,718.1,96.0,1079.8,116.8,2797.4,196.7,708.5,1133.3,2761.9,156.7,70.5
0.483778,722.1,91.9,1084.3,111.6,2786.7,240.3,708.7,1133.6,2762.7,156.4,70.6
0.485778,726.2,89.4,1089.4,105.5,2778.9,301.7,708.8,1134,2763.5,156.1,70.8
0.487778,729.0,89.0,1093.0,100.9,2768.5,369.0,709,1134.3,2764.4,155.8,71.1
0.489778,729.9,90.0,1094.4,98.2,2751.6,411.2,709.2,1134.6,2765.2,155.5,71.3
0.491778,729.4,90.9,1094.8,96.5,2733.1,419.1,709.3,1134.9,2766.1,155.2,71.6
0.493778,728.5,90.1,1095.2,95.1,2722.5,412.4,709.5,1135.2,2767.1,154.9,71.9
0.495778,728.5,89.1,1095.9,95.4,2725.2,403.9,709.7,1135.5,2768,154.5,72.1
0.497778,730.0,89.7,1096.6,99.0,2741.2,389.0,709.9,1135.8,2769,154.2,72.3
0.499778,732.2,89.6,1097.6,103.8,2765.0,359.4,710,1136,2770.1,153.8,72.5
0.501778,734.3,86.3,1098.8,106.4,2785.5,318.5,710.2,1136.3,2771.1,153.4,72.7
0.503778,736.3,80.9,1099.9,106.0,2794.7,274.8,710.3,1136.5,2772.2,152.9,72.8
0.505778,738.2,76.6,1101.2,104.3,2789.3,241.4,710.5,1136.8,2773.3,152.4,72.9
0.507778,740.3,75.1,1103.2,103.4,2777.0,219.2,710.7,1137,2774.5,151.9,73
0.509778,743.2,76.8,1105.7,104.3,2767.5,202.4,710.8,1137.2,2775.6,151.3,73
0.511778,745.9,80.2,1107.8,105.1,2765.3,186.1,711,1137.4,2776.8,150.6,72.9
0.513778,746.2,81.4,1109.3,104.1,2769.3,168.9,711.1,1137.6,2778,149.9,72.8
0.515778,743.2,80.1,1110.9,104.8,2776.2,152.9,711.3,1137.8,2779.2,149.2,72.6
0.517778,738.3,79.1,1113.8,112.6,2782.8,141.4,711.4,1138,2780.5,148.3,72.4
0.519778,732.9,79.6,1118.3,124.5,2787.7,135.2,711.5,1138.2,2781.7,147.4,72.1
0.521778,727.8,80.2,1123.4,131.7,2791.9,132.1,711.7,1138.3,2783,146.4,71.9
0.523778,723.5,80.0,1128.6,133.8,2798.2,129.5,711.8,1138.5,2784.3,145.2,71.7
0.525778,720.3,77.7,1135.5,136.1,2806.8,124.7,711.9,1138.6,2785.6,144,71.6
0.527778,718.6,71.8,1145.5,139.4,2814.1,119.2,712,1138.7,2787,142.7,71.5
0.529778,718.7,64.2,1158.0,143.2,2816.9,118.7,712.1,1138.8,2788.3,141.2,71.6
0.531778,720.4,57.9,1170.1,149.5,2814.0,123.8,712.3,1138.9,2789.7,139.6,71.8
0.533778,722.4,54.4,1177.2,158.4,2804.8,127.9,712.4,1138.9,2791,137.9,72
0.535778,724.3,53.8,1180.4,169.2,2787.6,130.1,712.4,1139,2792.4,136.1,72.2
0.537778,725.6,55.6,1181.0,177.5,2764.6,134.2,712.5,1139,2793.8,134.1,72.4
0.539778,726.0,58.6,1180.4,180.3,2746.7,140.2,712.6,1139.1,2795.2,132,72.6
0.541778,725.9,62.5,1181.3,182.7,2745.6,144.4,712.7,1139.1,2796.5,129.8,72.8
0.543778,725.6,66.9,1184.1,184.3,2760.2,140.8,712.8,1139.1,2797.9,127.5,73
0.545778,724.2,69.3,1184.7,177.5,2777.4,128.5,712.8,1139,2799.3,125.1,73.1
0.547778,720.9,67.6,1180.7,160.9,2789.0,115.1,712.9,1139,2800.7,122.6,73.2
0.549778,716.4,62.8,1174.8,142.8,2795.3,107.9,712.9,1139,2802.1,120,73.3
0.551778,712.3,58.9,1171.4,133.4,2797.8,108.5,713,1138.9,2803.5,117.3,73.3
