time,f1,b1,f2,b2,f3,b3,f1p,f2p,f3p,f0,intensity
0.025093,349.8,123.5,1923.9,289.4,2332.2,104.4,402.3,1931.6,2343.1,0,72.6
0.027093,339.6,119.7,1923.7,253.1,2334.8,116.4,403.1,1931.9,2343.6,0,73.5
0.029093,337.9,122.8,1923.5,215.2,2333.4,134.0,404.5,1932.4,2344.4,0,74.5
0.031093,358.5,118.4,1934.5,204.4,2333.6,165.5,406.3,1933.1,2345.6,0,75.4
0.033093,389.6,107.8,1954.1,200.7,2345.4,200.0,408.6,1934,2347.2,0,76.4
0.035093,411.9,96.5,1957.8,188.3,2353.7,198.5,411.3,1935.2,2349.2,0,77.2
0.037093,425.5,88.8,1949.4,174.2,2354.7,175.5,414.3,1936.6,2351.5,0,77.9
0.039093,435.6,86.4,1938.1,161.2,2356.1,147.6,417.6,1938.3,2354.4,0,78.4
0.041093,442.8,91.8,1925.6,155.1,2357.7,122.3,421.1,1940.3,2357.7,0,78.7
0.043093,447.5,109.8,1913.8,156.5,2358.9,103.3,424.6,1942.6,2361.5,0,78.7
0.045093,450.4,138.3,1909.6,159.2,2360.2,92.9,428.2,1945.3,2365.9,0,78.7
0.047093,453.9,161.9,1916.9,158.1,2363.6,88.3,431.7,1948.3,2370.9,0,78.7
0.049093,459.5,166.1,1935.8,155.5,2372.5,88.6,435.1,1951.8,2376.6,0,78.7
0.051093,466.7,172.3,1961.9,154.3,2389.5,92.0,438.2,1955.6,2382.8,0,78.8
0.053093,475.7,192.0,1980.7,148.5,2407.4,89.7,440.9,1959.9,2389.8,0,79
0.055093,484.9,205.5,1985.2,140.0,2418.5,83.2,443.2,1964.6,2397.5,0,79.2
0.057093,490.4,194.6,1982.1,130.3,2427.8,77.0,445.1,1969.8,2405.9,0,79.3
0.059093,486.4,165.5,1978.1,120.0,2439.1,73.5,446.3,1975.4,2415.1,0,79.3
0.061093,475.1,139.3,1978.6,108.1,2452.3,72.1,446.9,1981.4,2425,0,79.3
0.063093,461.7,125.0,1984.8,95.9,2461.5,70.2,446.9,1987.9,2435.6,0,79.2
0.065093,450.7,125.7,1993.8,91.0,2462.5,68.0,446.1,1994.7,2447.1,0,79.1
0.067093,444.1,147.3,2006.3,97.4,2460.1,68.7,444.6,2002,2459.2,0,79
0.069093,443.3,191.1,2021.7,107.4,2461.0,73.3,442.4,2009.6,2472.1,0,79
0.071093,444.1,244.1,2035.6,109.3,2465.8,79.5,439.4,2017.5,2485.6,130.7,78.9
0.073093,441.4,294.0,2046.6,107.0,2472.4,88.8,435.7,2025.7,2499.8,131,78.9
0.075093,433.7,345.5,2059.2,106.4,2482.8,106.0,431.2,2034.1,2514.6,131.4,78.8
0.077093,423.6,374.8,2071.4,102.6,2497.6,124.8,426.1,2042.6,2529.9,131.9,78.7
0.079093,414.4,346.6,2076.1,90.0,2512.4,134.5,420.4,2051.3,2545.7,132.4,78.5
0.081093,406.0,283.6,2072.8,74.7,2526.4,141.0,414.1,2060,2561.9,132.9,78.3
0.083093,399.2,243.8,2067.3,64.3,2543.1,154.2,407.4,2068.8,2578.4,133.6,78.1
0.085093,393.3,249.2,2064.3,60.2,2567.1,174.7,400.2,2077.4,2595.2,134.2,78
0.087093,381.6,297.2,2066.2,63.4,2603.2,202.4,392.8,2085.9,2612.2,135,77.9
0.089093,361.5,338.5,2072.4,72.9,2654.2,237.1,385.1,2094.2,2629.3,135.7,77.9
0.091093,347.1,334.7,2083.5,85.0,2713.4,251.4,377.3,2102.3,2646.4,136.6,77.9
0.093093,340.9,311.8,2099.2,94.8,2751.7,235.0,369.5,2110,2663.4,137.5,77.9
0.095093,335.1,290.1,2117.0,100.3,2750.9,215.5,361.7,2117.3,2680.2,138.5,77.8
0.097093,325.5,283.2,2128.9,100.3,2715.0,199.7,354.2,2124.2,2696.8,139.5,77.7
0.099093,311.2,297.4,2133.0,94.8,2681.8,183.6,347,2130.7,2713.1,140.6,77.6
0.101093,297.0,325.1,2138.2,87.9,2688.4,180.0,340.1,2136.6,2729,141.8,77.6
0.103093,297.3,315.8,2145.7,82.8,2732.7,187.3,333.7,2142,2744.3,143,77.6
0.105093,310.0,250.5,2149.8,78.2,2790.9,192.8,327.8,2146.9,2759.2,144.2,77.7
0.107093,318.4,182.6,2149.6,74.4,2829.7,191.2,322.6,2151.2,2773.4,145.5,77.8
0.109093,320.8,135.8,2146.6,71.2,2828.8,189.3,318,2154.9,2787,146.9,77.8
0.111093,319.3,108.4,2141.7,66.9,2795.4,181.7,314.1,2158.1,2799.9,148.2,77.8
0.113093,315.8,91.6,2138.2,59.4,2761.7,166.8,311.1,2160.7,2812.1,149.6,77.6
0.115093,313.4,83.5,2139.7,52.5,2754.0,166.1,308.8,2162.8,2823.5,151.1,77.2
0.117093,315.1,81.6,2144.8,48.2,2773.7,180.3,307.2,2164.4,2834.1,152.6,76.7
0.119093,321.2,83.5,2150.1,46.1,2813.3,200.5,306.5,2165.6,2844,154,76
0.121093,329.2,85.8,2153.6,45.8,2847.6,216.5,306.6,2166.4,2853,155.5,75.2
0.123093,337.3,88.5,2157.3,47.6,2860.8,232.0,307.4,2166.9,2861.3,157,74.3
0.125093,343.4,93.4,2161.0,51.2,2854.6,252.5,308.9,2167.1,2868.8,158.5,73.5
0.127093,347.2,103.6,2162.6,54.0,2855.8,265.9,311.1,2167.1,2875.6,160,72.8
0.129093,350.8,111.1,2161.6,54.0,2883.9,268.5,313.8,2167,2881.7,161.5,72.5
0.131093,352.7,95.7,2160.5,51.7,2915.7,275.5,317.1,2166.8,2887.1,162.9,72.6
0.133093,349.2,69.2,2162.4,50.6,2936.8,306.8,320.8,2166.6,2891.8,164.4,72.9
0.135093,342.9,52.3,2168.8,54.3,2938.6,375.5,324.9,2166.5,2896,165.8,73.2
0.137093,337.5,46.7,2179.8,64.7,2914.8,457.0,329.2,2166.6,2899.6,167.2,73.4
0.139093,335.2,49.5,2191.0,79.2,2880.7,489.2,333.7,2166.9,2902.7,168.5,73.3
0.141093,337.0,58.9,2197.3,90.3,2860.2,465.4,338.3,2167.5,2905.3,169.8,73
0.143093,343.3,70.3,2196.4,87.9,2861.0,417.3,342.9,2168.3,2907.6,171.1,72.5
0.145093,352.3,77.0,2193.1,73.2,2873.9,371.8,347.4,2169.6,2909.4,172.3,71.9
0.147093,359.6,76.3,2192.4,55.4,2890.0,341.7,351.7,2171.3,2911,173.4,71.2
0.149093,361.4,72.3,2194.6,42.0,2906.3,329.3,355.7,2173.3,2912.3,174.5,70.7
0.151093,358.3,69.9,2197.4,33.9,2923.8,331.6,359.3,2175.9,2913.3,175.6,70.3
0.153093,352.0,73.7,2198.6,31.3,2937.5,352.3,362.6,2178.8,2914.1,176.6,70
0.155093,344.6,85.7,2197.6,32.8,2947.0,390.4,365.4,2182.2,2914.7,177.5,69.8
0.157093,339.2,102.0,2195.0,36.4,2956.3,437.5,367.7,2186,2915.1,178.4,69.7
0.159093,339.6,111.1,2193.2,40.1,2966.9,494.4,369.4,2190.2,2915.4,179.1,69.6
0.161093,344.7,107.7,2193.9,43.4,2974.3,573.7,370.7,2194.7,2915.5,179.9,69.6
0.163093,349.6,96.3,2197.6,45.3,2967.8,647.6,371.3,2199.4,2915.4,180.6,69.7
0.165093,351.9,82.0,2203.3,45.7,2947.9,670.3,371.4,2204.3,2915.1,181.2,69.8
0.167093,352.0,68.2,2209.2,44.8,2922.0,631.9,370.9,2209.4,2914.7,181.7,70
0.169093,350.7,59.0,2213.3,43.3,2901.2,562.1,369.9,2214.4,2914,182.2,70.1
0.171093,349.1,55.6,2215.4,41.0,2894.9,484.8,368.5,2219.4,2913,182.6,70.2
0.173093,349.0,57.2,2216.5,38.1,2900.7,423.0,366.7,2224.2,2911.8,183,70.2
0.175093,351.0,58.7,2217.7,35.0,2907.8,388.1,364.5,2228.7,2910.2,183.4,70.3
0.177093,353.7,56.5,2219.3,32.6,2912.9,384.9,362,2232.8,2908.2,183.6,70.3
0.179093,356.0,52.3,2220.8,30.8,2917.0,415.8,359.4,2236.4,2905.8,183.9,70.3
0.181093,357.7,49.3,2222.1,29.7,2918.0,483.8,356.6,2239.3,2903,184.1,70.4
0.183093,359.0,48.4,2223.8,29.6,2901.0,575.8,353.8,2241.6,2899.7,184.2,70.6
0.185093,360.0,48.8,2226.4,31.1,2866.3,630.9,351,2243,2895.8,184.4,70.7
0.187093,360.6,50.3,2229.3,34.3,2843.0,604.5,348.4,2243.4,2891.3,184.5,70.9
0.189093,360.3,53.9,2229.9,39.8,2831.6,523.9,346.1,2242.9,2886.2,184.5,71
0.191093,358.8,61.3,2224.6,46.9,2826.2,433.0,344,2241.3,2880.4,184.6,71.1
0.193093,357.3,72.7,2213.5,52.0,2825.9,353.2,342.4,2238.5,2874,184.6,71.2
0.195093,357.6,83.2,2202.5,51.2,2829.6,294.8,341.2,2234.5,2866.8,184.6,71.3
0.197093,359.6,84.4,2196.2,46.0,2832.9,258.4,340.6,2229.3,2859,184.6,71.5
0.199093,361.6,75.5,2193.1,39.8,2831.5,234.3,340.6,2222.8,2850.4,184.6,71.6
0.201093,362.8,64.4,2190.8,36.2,2822.1,219.2,341.2,2215,2841.1,184.5,71.9
0.203093,364.3,56.5,2187.3,36.1,2807.4,204.0,342.5,2206.1,2831.2,184.5,72.1
0.205093,366.1,52.2,2182.4,39.8,2795.8,181.9,344.5,2195.9,2820.6,184.5,72.5
0.207093,366.8,50.4,2178.5,47.7,2793.0,158.2,347.2,2184.5,2809.4,184.4,72.8
0.209093,365.7,50.6,2178.6,62.5,2794.6,139.2,350.6,2172.1,2797.6,184.4,73.3
0.211093,363.4,53.3,2181.3,81.3,2794.4,129.2,354.7,2158.7,2785.3,184.3,73.7
0.213093,361.6,60.3,2177.1,92.9,2791.1,123.2,359.4,2144.3,2772.6,184.3,74.1
0.215093,361.9,72.1,2163.6,91.8,2786.0,117.1,364.7,2129.3,2759.6,184.3,74.5
0.217093,364.7,87.5,2145.6,85.8,2778.4,110.3,370.6,2113.5,2746.3,184.2,75
0.219093,368.4,100.1,2127.3,82.7,2769.6,104.0,376.9,2097.3,2732.8,184.2,75.5
0.221093,370.9,105.0,2109.4,84.2,2760.8,98.4,383.7,2080.7,2719.3,184.2,76
0.223093,372.1,102.6,2094.0,87.5,2753.1,94.6,390.7,2063.9,2705.8,184.2,76.4
0.225093,373.3,98.6,2084.0,89.4,2746.5,94.4,398,2047.1,2692.5,184.2,76.7
0.227093,376.1,98.5,2077.0,89.6,2738.2,98.7,405.4,2030.5,2679.4,184.2,77
0.229093,381.3,105.8,2068.6,87.4,2726.9,103.0,412.8,2014.2,2666.7,184.2,77
0.231093,388.6,123.3,2056.5,82.9,2713.7,100.8,420.1,1998.5,2654.5,0,76.9
0.233093,398.1,159.8,2042.1,79.1,2701.2,93.6,427.2,1983.4,2643,0,76.7
0.235093,408.9,223.9,2026.8,80.2,2689.9,91.9,434.1,1969.2,2632.2,0,76.4
0.237093,422.5,341.9,2008.1,90.2,2678.6,101.5,440.5,1956,2622.2,0,76
0.239093,437.5,536.7,1986.4,117.7,2670.8,121.3,446.4,1944,2613.1,0,75.6
0.241093,456.5,709.3,1959.0,167.0,2658.8,151.6,451.7,1933.3,2605,0,75.3
0.243093,475.1,815.8,1928.2,227.9,2630.3,193.5,456.3,1924,2598,0,75.2
0.245093,485.2,950.8,1889.9,287.6,2569.3,236.4,460.3,1916.2,2592.2,0,75.1
0.247093,486.8,1074.6,1842.4,300.7,2492.4,222.6,463.4,1910.1,2587.7,0,75.2
0.249093,493.6,1083.0,1806.0,253.1,2449.0,166.5,465.6,1905.7,2584.4,0,75.3
0.251093,488.8,1042.0,1788.7,202.2,2444.8,123.1,467,1903,2582.4,0,75.5
0.253093,475.8,1029.5,1777.1,175.4,2459.1,95.8,467.4,1902.1,2581.7,0,75.8
