time,f1,b1,f2,b2,f3,b3,f1p,f2p,f3p,f0,intensity
0.025098,400.2,175.5,1417.3,39.8,2287.6,1257.2,470.9,1421.4,2469,86.3,68.8
0.027098,424.9,175.0,1416.3,44.7,2476.5,1425.5,473.1,1419.4,2472.3,86.2,68.8
0.029098,457.8,169.0,1416.7,49.9,2601.8,1503.9,476.9,1416.1,2477.6,86.2,68.7
0.031098,492.4,153.1,1416.3,48.7,2607.6,1416.0,482.1,1411.5,2484.8,86.1,68.8
0.033098,517.9,132.6,1411.4,43.8,2540.4,1216.8,488.5,1405.9,2493.8,86,68.8
0.035098,530.4,116.7,1401.1,40.5,2479.1,997.4,496.2,1399.2,2504.1,85.9,68.9
0.037098,534.4,107.5,1386.5,39.3,2458.4,804.6,504.8,1391.6,2515.6,85.8,69
0.039098,536.3,102.3,1371.0,38.4,2480.0,649.0,514.3,1383.3,2527.9,85.7,69
0.041098,540.2,97.6,1359.6,37.0,2523.2,516.9,524.4,1374.5,2540.5,85.6,69
0.043098,547.3,92.2,1354.0,35.8,2558.0,395.7,535.1,1365.2,2553.3,85.5,68.9
0.045098,556.4,88.1,1351.6,36.9,2572.1,294.7,546,1355.6,2565.7,85.4,68.8
0.047098,564.5,88.0,1350.0,41.7,2577.0,236.4,557.1,1346,2577.6,85.3,68.8
0.049098,571.3,91.1,1348.6,51.1,2584.7,208.5,568.2,1336.4,2588.4,85.1,68.7
0.051098,578.2,94.1,1346.6,65.2,2596.9,199.3,579,1327.1,2598,85,68.7
0.053098,586.7,93.6,1341.7,83.4,2610.5,204.4,589.5,1318,2606.1,84.9,68.7
0.055098,596.3,89.3,1330.5,104.3,2621.7,224.3,599.6,1309.5,2612.6,84.7,68.8
0.057098,605.5,82.5,1311.4,121.4,2626.5,265.7,609.2,1301.4,2617.2,84.6,68.8
0.059098,614.4,76.1,1290.1,123.0,2621.8,323.5,618.1,1294,2620,84.4,68.9
0.061098,624.6,74.6,1276.9,111.2,2621.2,349.1,626.4,1287.2,2620.8,84.3,69.1
0.063098,635.5,78.4,1271.4,98.1,2635.4,301.2,634,1281.1,2619.8,84.1,69.2
0.065098,644.8,84.7,1268.3,87.5,2639.7,228.4,641,1275.6,2617,83.9,69.3
0.067098,650.0,88.7,1265.0,79.5,2630.8,183.6,647.3,1270.9,2612.6,83.7,69.5
0.069098,651.7,86.2,1261.3,72.6,2611.1,157.0,653.1,1266.8,2606.7,83.6,69.6
0.071098,652.0,77.0,1258.7,67.9,2586.7,135.7,658.3,1263.2,2599.6,83.4,69.7
0.073098,654.0,66.4,1257.8,67.3,2567.0,117.6,663.1,1260.2,2591.5,83.2,69.8
0.075098,659.0,59.3,1257.1,70.3,2556.4,106.9,667.6,1257.7,2582.6,83,69.9
0.077098,665.7,56.3,1253.9,73.1,2552.5,104.8,671.8,1255.6,2573.2,82.8,70
0.079098,671.4,56.1,1248.0,72.9,2551.2,109.7,675.8,1253.7,2563.6,82.6,70.1
0.081098,673.6,56.8,1242.5,71.5,2549.4,122.2,679.7,1252.2,2554,82.4,70.1
0.083098,671.9,58.0,1240.0,72.9,2545.5,149.0,683.6,1250.8,2544.6,82.2,70
0.085098,669.9,60.8,1243.3,80.0,2539.3,192.2,687.5,1249.5,2535.7,82,69.9
0.087098,673.0,66.5,1251.5,88.9,2532.1,244.6,691.5,1248.2,2527.3,81.8,69.9
0.089098,684.7,74.6,1257.2,89.5,2527.7,283.5,695.7,1247,2519.7,81.6,69.9
0.091098,702.3,82.6,1255.8,80.9,2526.9,291.5,700,1245.8,2512.9,81.4,70
0.093098,717.9,86.4,1251.1,70.1,2526.2,275.8,704.5,1244.5,2506.9,81.2,70.3
0.095098,727.6,85.8,1246.3,60.6,2519.8,255.5,709.1,1243.1,2501.8,81.1,70.6
0.097098,733.3,82.7,1242.4,52.8,2505.2,242.6,713.8,1241.7,2497.6,80.9,70.9
0.099098,736.9,77.9,1239.8,46.0,2487.3,235.9,718.5,1240.2,2494.1,80.7,71.1
0.101098,739.2,71.8,1239.3,40.3,2474.1,229.5,723.2,1238.7,2491.3,80.6,71.4
0.103098,741.2,67.8,1241.5,37.2,2469.3,221.9,727.7,1237.2,2489.1,80.5,71.6
0.105098,742.4,69.2,1244.5,38.3,2473.2,216.9,732.1,1235.6,2487.4,80.3,71.7
0.107098,742.7,76.0,1245.2,43.8,2483.9,212.8,736.2,1234.2,2486.1,80.2,71.9
0.109098,743.6,86.4,1241.1,52.2,2496.3,204.1,739.9,1232.7,2485,80.1,72.1
0.111098,745.2,96.0,1232.5,58.4,2504.1,189.4,743.2,1231.4,2484,80,72.4
0.113098,745.8,100.3,1223.0,57.9,2504.0,174.0,745.9,1230.1,2483,80,72.7
0.115098,744.8,98.8,1216.6,53.1,2493.7,165.4,747.9,1228.9,2482,79.9,72.9
0.117098,742.8,94.7,1215.5,49.0,2473.2,167.7,749.3,1227.9,2480.8,79.8,73.2
0.119098,740.5,90.9,1219.9,48.3,2454.2,176.1,750,1226.9,2479.5,79.8,73.5
0.121098,738.3,88.0,1227.1,49.5,2452.9,178.9,749.8,1226,2478.1,79.8,73.7
0.123098,736.6,85.0,1232.8,49.7,2466.5,169.9,748.9,1225.2,2476.6,79.8,73.9
0.125098,735.7,81.8,1232.3,46.8,2479.6,155.3,747.2,1224.4,2475.1,79.8,74.1
0.127098,735.4,78.8,1226.2,41.8,2487.1,141.1,744.8,1223.5,2473.5,79.8,74.3
0.129098,734.7,77.0,1218.6,36.9,2488.0,130.8,741.6,1222.6,2472.2,79.8,74.4
0.131098,732.3,76.8,1213.3,34.2,2483.5,126.8,737.7,1221.6,2471,79.8,74.6
0.133098,727.4,77.1,1210.9,34.0,2477.4,128.5,733.2,1220.4,2470.3,79.9,74.7
0.135098,722.0,77.5,1210.1,35.5,2472.1,132.9,728.1,1219.1,2470.1,79.9,74.7
0.137098,717.9,77.6,1209.6,37.2,2468.8,137.7,722.6,1217.4,2470.5,80,74.6
0.139098,715.3,77.4,1209.4,38.4,2467.0,143.9,716.7,1215.5,2471.7,80,74.4
0.141098,712.9,78.3,1210.5,40.0,2463.8,156.7,710.6,1213.2,2473.7,80.1,74
0.143098,708.9,81.2,1213.9,43.8,2456.7,179.5,704.2,1210.6,2476.6,80.1,73.6
0.145098,701.5,81.3,1217.8,48.9,2449.7,204.7,697.8,1207.6,2480.5,80.2,73.3
0.147098,693.6,73.0,1216.3,49.8,2457.7,205.7,691.4,1204.3,2485.4,80.2,73.2
0.149098,688.8,63.7,1209.2,46.6,2484.3,176.4,685.1,1200.7,2491.2,80.3,73.4
0.151098,685.7,61.1,1202.6,45.7,2512.6,137.3,678.9,1196.7,2497.9,80.4,73.8
0.153098,682.4,64.7,1197.9,49.0,2532.5,103.7,673,1192.5,2505.4,80.4,74.2
0.155098,678.4,70.9,1193.1,53.1,2544.1,80.4,667.4,1188.2,2513.5,80.5,74.5
0.157098,673.6,75.9,1187.0,53.0,2550.1,67.2,662.2,1183.7,2522.1,80.5,74.8
0.159098,668.9,78.7,1180.0,47.8,2552.0,63.3,657.3,1179.1,2531,80.6,75
0.161098,664.2,79.6,1173.8,41.6,2549.9,69.6,652.9,1174.6,2540,80.6,75.1
0.163098,659.9,78.8,1169.3,38.6,2545.3,81.6,648.9,1170.3,2548.9,80.6,75.2
0.165098,655.3,77.3,1165.0,39.1,2544.7,83.1,645.4,1166.2,2557.4,80.7,75.2
0.167098,650.3,77.0,1159.8,41.6,2551.4,69.9,642.4,1162.4,2565.3,80.7,75.2
0.169098,644.4,78.7,1154.8,43.8,2560.1,57.5,639.8,1159,2572.4,80.7,75.1
0.171098,638.0,83.2,1151.6,43.8,2568.7,53.6,637.7,1156.2,2578.5,80.7,75
0.173098,631.5,91.9,1150.3,42.4,2577.7,59.4,636,1153.9,2583.5,80.8,74.7
0.175098,623.9,103.1,1150.1,41.4,2586.7,74.9,634.9,1152.2,2587.1,80.8,74.4
0.177098,613.8,112.7,1150.5,41.6,2591.9,95.0,634.2,1151.1,2589.3,80.8,74
0.179098,600.7,118.9,1151.5,43.7,2589.8,106.0,634,1150.8,2590.1,80.8,73.6
