time,f1,b1,f2,b2,f3,b3,f1p,f2p,f3p,f0,intensity
0.025406,656.0,75.4,1285.0,76.5,2671.4,247.3,644.5,1269.4,2709.3,285.3,72.6
0.027406,652.3,66.2,1278.3,60.9,2684.8,198.4,643.7,1269.3,2708.3,281.7,73.2
0.029406,647.7,55.6,1270.9,47.4,2696.7,160.6,642.3,1269.2,2706.8,277.7,73.6
0.031406,639.9,47.3,1262.6,37.3,2706.1,136.5,640.3,1269.2,2705,273.3,73.7
0.033406,628.4,45.7,1255.1,32.7,2711.9,127.7,637.7,1269.3,2702.9,268.6,73.6
0.035406,616.9,50.5,1250.5,32.9,2714.3,122.1,634.5,1269.6,2700.7,263.5,73.4
0.037406,611.4,54.8,1249.5,34.1,2717.3,110.8,630.5,1270.3,2698.7,258.1,73.1
0.039406,611.7,57.1,1251.9,36.4,2721.4,104.3,625.8,1271.3,2697.1,252.5,72.8
0.041406,615.3,61.6,1261.0,44.6,2722.8,114.2,620.3,1272.8,2695.9,246.5,72.5
0.043406,617.2,66.5,1279.7,61.2,2717.1,133.9,614,1274.8,2695.3,240.3,72.2
0.045406,613.3,63.2,1302.9,78.3,2707.3,136.9,607,1277.2,2695.1,233.9,71.9
0.047406,607.0,55.0,1315.7,85.8,2700.9,123.8,599.1,1280.2,2695.5,0,71.6
0.049406,601.7,49.3,1316.2,88.2,2696.5,113.1,590.4,1283.6,2696.2,0,71.3
0.051406,597.3,50.9,1308.9,91.0,2690.3,118.0,581,1287.2,2697,0,70.9
0.053406,589.6,60.6,1298.8,90.9,2678.3,144.0,571,1291,2697.6,0,70.5
0.055406,577.0,70.1,1290.9,82.2,2667.9,171.5,560.4,1294.7,2697.6,0,70
0.057406,561.4,75.9,1285.8,69.3,2667.2,186.5,549.2,1298.1,2696.7,0,69.7
0.059406,543.4,86.5,1285.1,59.1,2673.3,197.9,537.7,1301,2694.4,187.2,69.4
0.061406,521.8,110.1,1288.7,53.9,2679.5,211.9,526,1303.1,2690.5,180.8,69.3
0.063406,498.6,135.0,1292.4,50.9,2684.6,215.9,514.1,1304.2,2684.5,174.6,69.3
0.065406,482.1,131.2,1292.8,48.5,2686.6,211.5,502.2,1304,2676.2,168.7,69.5
0.067406,469.0,106.6,1291.5,48.3,2682.8,220.6,490.4,1302.4,2665.4,163.1,69.8
0.069406,457.9,84.3,1291.2,52.0,2673.1,261.2,478.9,1299.1,2652.2,157.7,70.3
0.071406,450.7,70.2,1290.7,56.4,2660.2,321.0,467.7,1294.1,2636.5,152.7,70.7
0.073406,447.2,61.0,1286.4,59.0,2647.0,370.3,457,1287.2,2618.7,148,71.1
0.075406,444.8,57.3,1278.9,65.3,2625.6,410.4,446.7,1278.7,2599,143.7,71.5
0.077406,440.5,59.6,1270.3,84.2,2576.8,454.8,437.1,1268.4,2578,139.7,71.7
0.079406,434.4,63.5,1261.5,114.5,2518.8,463.9,428.1,1256.6,2556.3,136.1,71.9
0.081406,429.2,62.6,1251.7,136.1,2491.7,424.1,419.7,1243.6,2534.5,132.8,72.1
0.083406,425.8,58.4,1237.7,139.3,2488.5,357.9,411.9,1229.6,2513.3,129.8,72.1
0.085406,422.8,56.7,1218.0,133.5,2483.6,285.1,404.8,1214.9,2493.5,127.1,72.1
0.087406,417.0,58.9,1195.5,125.8,2469.1,214.2,398.1,1200.1,2475.7,124.7,72
0.089406,408.2,60.4,1179.0,115.5,2454.9,159.5,392,1185.4,2460.7,122.6,71.8
0.091406,397.8,57.5,1170.9,105.0,2447.7,124.3,386.2,1171.4,2449,120.7,71.7
0.093406,386.4,53.4,1167.5,102.4,2447.9,111.4,380.9,1158.6,2441,119.1,71.5
0.095406,372.6,51.3,1163.7,113.6,2452.8,121.3,375.7,1147.2,2437.1,117.7,71.4
0.097406,360.8,51.5,1158.9,140.8,2462.1,156.2,370.8,1137.8,2437.3,116.4,71.3
0.099406,355.3,52.6,1155.3,177.4,2477.1,198.6,365.9,1130.7,2441.6,115.3,71.2
0.101406,352.7,54.1,1150.4,215.1,2490.8,215.5,361.1,1126.2,2449.8,114.4,71.1
0.103406,347.4,57.2,1135.0,250.4,2492.5,201.0,356.3,1124.6,2461.5,113.6,71
0.105406,339.1,62.0,1107.9,286.0,2488.8,172.9,351.4,1125.9,2476.1,112.8,71
0.107406,333.6,64.8,1085.9,312.0,2489.1,144.9,346.5,1130.3,2493.1,112.2,70.9
0.109406,332.3,65.1,1087.0,327.7,2494.4,124.6,341.4,1137.8,2511.8,111.6,70.8
0.111406,331.5,64.3,1116.2,339.4,2501.3,117.3,336.2,1148.3,2531.2,111.1,70.7
0.113406,327.9,63.4,1157.0,357.4,2509.1,132.2,330.8,1161.5,2550.7,110.7,70.6
0.115406,323.1,61.7,1190.5,388.9,2522.5,175.3,325.4,1177.3,2569.6,110.2,70.5
0.117406,320.6,59.5,1210.8,423.6,2544.5,238.7,320,1195.4,2587.1,109.9,70.4
0.119406,319.4,59.2,1225.2,451.7,2570.4,294.8,314.6,1215.4,2602.7,109.5,70.2
0.121406,316.6,64.2,1238.0,495.1,2590.8,341.5,309.1,1236.8,2615.9,109.2,70.1
0.123406,311.0,75.2,1243.2,586.2,2605.2,410.3,303.8,1259.2,2626.5,108.8,69.9
0.125406,306.2,86.7,1241.6,721.5,2620.1,515.7,298.7,1282.1,2634.4,108.5,69.7
0.127406,303.9,94.9,1249.2,850.1,2639.3,620.9,293.8,1305.1,2639.5,108.2,69.5
0.129406,301.8,100.9,1310.0,903.2,2686.0,644.6,289.1,1327.7,2642.1,107.9,69.2
0.131406,296.5,103.9,1418.5,772.7,2740.7,522.9,284.8,1349.3,2642.5,107.6,68.9
0.133406,288.1,97.9,1479.0,559.2,2767.3,388.3,280.9,1369.6,2641.1,107.3,68.6
0.135406,281.0,83.6,1493.8,427.6,2763.2,319.4,277.4,1388.1,2638.4,107.1,68.2
0.137406,276.0,69.1,1481.4,385.8,2702.3,285.9,274.3,1404.4,2634.9,106.8,67.9
0.139406,270.5,62.0,1453.5,379.8,2606.1,188.2,271.8,1418.3,2631.2,106.5,67.5
0.141406,263.9,68.2,1432.8,408.1,2565.9,102.7,269.8,1429.3,2627.7,106.3,67.1
0.143406,258.4,86.4,1404.4,473.6,2554.8,65.6,268.4,1437.4,2624.8,106,66.7
0.145406,256.6,117.5,1361.7,514.1,2552.8,51.5,267.5,1442.3,2623,105.8,66.4
0.147406,255.6,175.2,1307.2,523.6,2555.0,46.8,267.2,1443.9,2622.4,105.6,66.2
