time,f1,b1,f2,b2,f3,b3,f1p,f2p,f3p,f0,intensity
0.025481,422.9,187.4,1016.3,148.0,2217.9,120.8,486.7,1011.2,2185.5,129.8,74.2
0.027481,466.3,177.9,1018.6,141.0,2211.0,132.0,492.8,1014,2193.8,129.6,74.2
0.029481,499.8,163.2,1021.0,132.8,2219.8,135.5,502.6,1018.7,2206.9,129.4,74.2
0.031481,524.1,155.4,1023.1,129.5,2237.5,142.8,515.6,1024.9,2223.9,129.2,74.1
0.033481,548.5,155.6,1027.2,134.0,2258.1,163.1,531.2,1032.4,2243.7,128.9,73.9
0.035481,573.7,156.3,1034.6,140.7,2272.6,194.3,548.6,1041,2264.8,128.7,73.7
0.037481,599.3,149.8,1046.3,139.8,2279.6,235.4,566.9,1050.3,2285.9,128.5,73.5
0.039481,618.7,142.1,1059.4,129.6,2281.5,284.0,585.5,1060.1,2305.5,128.2,73.4
0.041481,631.6,138.5,1071.8,114.7,2281.1,336.7,603.6,1070,2322.4,127.9,73.3
0.043481,637.1,136.4,1081.2,100.0,2283.1,365.1,620.6,1079.8,2335.6,127.7,73.3
0.045481,639.2,133.2,1089.3,86.4,2291.1,375.9,636.1,1089.2,2344.5,127.4,73.3
0.047481,641.1,132.5,1097.1,78.8,2304.0,391.0,649.8,1098.2,2348.8,127.1,73.2
0.049481,646.1,135.5,1106.2,77.8,2321.0,420.6,661.6,1106.5,2348.4,126.9,73.1
0.051481,653.5,136.2,1114.8,80.4,2338.0,457.3,671.7,1114.1,2343.9,126.6,73
0.053481,661.3,134.6,1122.8,82.2,2356.0,514.1,680.4,1121.1,2336,126.3,72.8
0.055481,668.8,139.3,1129.6,83.7,2372.8,614.9,687.9,1127.5,2325.7,126,72.6
0.057481,679.7,154.8,1136.5,88.0,2387.2,778.2,694.7,1133.4,2314.1,125.7,72.5
0.059481,692.9,165.0,1142.1,90.9,2384.6,889.9,701.4,1138.8,2302.3,125.5,72.4
0.061481,704.9,157.5,1146.1,85.7,2346.3,822.1,708.3,1143.9,2291.5,125.2,72.4
0.063481,716.1,145.5,1149.2,75.2,2297.5,640.3,715.8,1148.8,2282.5,125,72.6
0.065481,728.6,140.7,1151.6,66.0,2267.5,509.6,724,1153.5,2276.2,124.7,72.8
0.067481,740.8,137.1,1153.9,58.7,2255.5,449.0,733.2,1158,2272.9,124.5,73.1
0.069481,749.6,131.2,1157.2,55.0,2253.3,439.0,743.1,1162.4,2272.7,124.3,73.4
0.071481,758.9,126.9,1162.5,57.0,2250.0,451.8,753.6,1166.6,2275.2,124,73.7
0.073481,768.7,125.6,1168.0,63.7,2245.7,459.5,764.2,1170.5,2280,123.8,73.9
0.075481,777.6,123.9,1172.2,68.5,2246.6,458.1,774.4,1174.1,2286.2,123.6,74.1
0.077481,784.7,123.6,1175.4,67.9,2253.4,470.4,783.7,1177.1,2292.7,123.4,74.2
0.079481,795.6,130.2,1180.6,68.2,2266.6,521.5,791.4,1179.6,2298.5,0,74.2
0.081481,811.0,142.6,1187.8,74.7,2285.1,599.6,797.1,1181.3,2302.5,0,74.1
0.083481,823.1,151.3,1193.7,82.2,2304.9,658.7,800.2,1182.3,2303.8,0,73.9
0.085481,821.9,151.8,1193.2,80.6,2318.3,668.9,800.4,1182.4,2301.6,0,73.7
0.087481,807.0,146.5,1186.1,68.6,2326.0,644.2,797.6,1181.6,2295.6,0,73.4
0.089481,781.7,130.9,1176.0,52.8,2317.9,587.1,791.9,1180.2,2285.7,0,73.2
0.091481,754.8,103.9,1166.3,39.0,2283.4,496.5,783.4,1178,2272.1,0,72.9
0.093481,739.1,84.1,1161.5,31.6,2249.0,423.6,772.8,1175.4,2255.4,0,72.6
0.095481,730.6,77.9,1162.1,29.2,2231.5,394.3,760.5,1172.6,2236.7,0,72.3
0.097481,725.7,87.3,1167.1,32.4,2222.0,423.2,747.4,1169.7,2217,0,71.9
0.099481,723.9,109.1,1173.0,41.5,2208.7,520.3,734.2,1167,2197.7,0,71.4
0.101481,726.4,136.8,1176.1,55.9,2200.5,696.1,721.9,1164.7,2180.1,0,70.8
0.103481,731.2,160.0,1174.7,69.3,2226.3,864.5,711.2,1163.2,2165.6,0,70.1
0.105481,730.7,175.8,1168.4,77.7,2239.3,879.5,702.7,1162.5,2155.2,0,69.5
0.107481,719.5,184.2,1160.1,80.0,2173.5,786.0,697,1162.7,2149.7,0,68.8
0.109481,702.7,190.5,1156.8,78.9,2105.2,731.8,694.4,1164,2149.6,0,68.1
0.111481,692.3,198.1,1161.1,79.1,2073.4,766.6,695,1166.2,2155,0,67.6
0.113481,693.4,210.9,1168.8,87.1,2081.8,876.8,698.6,1169.4,2165.5,0,67.1
0.115481,706.1,221.6,1175.4,107.4,2120.1,1009.4,704.8,1173.3,2180.5,0,66.7
0.117481,722.5,223.9,1178.7,137.6,2162.4,1138.1,713.1,1177.7,2198.7,0,66.4
0.119481,731.4,222.7,1178.8,155.2,2188.2,1236.3,722.7,1182.4,2218.9,0,66.2
0.121481,733.8,222.3,1181.4,152.2,2229.5,1277.3,732.8,1187,2239.6,0,65.9
0.123481,736.0,221.1,1189.6,147.0,2296.6,1177.0,742.5,1191.3,2259.2,0,65.6
0.125481,743.3,213.6,1201.1,162.0,2336.8,1004.0,751.1,1194.9,2276.3,0,65.2
0.127481,750.8,198.5,1208.8,199.6,2337.8,884.5,757.7,1197.8,2289.5,0,64.8
0.129481,756.3,185.7,1206.3,259.3,2320.1,791.3,762,1199.5,2297.8,0,64.3
0.131481,760.9,187.1,1185.4,332.6,2292.4,706.0,763.4,1200.1,2300.7,0,63.6
