time,f1,b1,f2,b2,f3,b3,f1p,f2p,f3p,f0,intensity
0.025485,530.1,420.1,2016.2,313.6,2875.0,950.9,698.8,2055.7,2973.8,194,70.4
0.027485,624.1,444.7,2035.6,230.9,2909.2,510.6,705.4,2055,2956.9,193.9,71
0.029485,712.5,459.5,2047.0,172.0,2885.7,346.1,716.4,2053.9,2929.5,193.7,71.6
0.031485,786.3,446.4,2054.3,139.2,2872.3,270.2,731.6,2052.3,2892.7,193.6,72.1
0.033485,837.3,413.9,2059.9,124.9,2866.0,240.9,750.9,2050.3,2848.2,193.5,72.6
0.035485,871.7,380.1,2063.2,118.3,2859.9,236.5,774.1,2047.7,2797.9,193.4,73
0.037485,896.1,353.2,2061.7,111.8,2851.2,251.6,801,2044.5,2743.8,193.3,73.3
0.039485,911.9,336.7,2055.0,105.9,2841.1,301.2,831.3,2040.8,2688.2,193.2,73.5
0.041485,918.6,331.9,2045.5,106.5,2825.5,431.4,864.6,2036.4,2633.6,193.2,73.6
0.043485,920.8,341.8,2035.2,115.8,2758.4,719.1,900.5,2031.3,2582.3,193.2,73.7
0.045485,925.3,376.6,2025.0,130.7,2539.5,888.3,938.6,2025.5,2536.4,193.3,73.8
0.047485,938.8,445.5,2018.1,146.9,2413.5,847.6,978.3,2018.9,2497.8,193.4,73.8
0.049485,967.3,545.2,2016.5,162.9,2356.9,882.7,1019.1,2011.5,2468.3,193.5,73.9
0.051485,1007.8,649.3,2016.7,181.4,2317.2,966.4,1060.5,2003.3,2449.1,193.7,73.9
0.053485,1049.3,731.2,2012.2,205.6,2286.3,1037.1,1101.6,1994.4,2441.1,194,73.8
0.055485,1086.7,790.6,1999.4,235.2,2273.9,1091.0,1142,1984.6,2444.6,194.3,73.8
0.057485,1123.4,830.9,1978.6,263.9,2281.7,1160.4,1180.9,1974,2459.7,194.6,73.8
0.059485,1158.5,840.2,1953.4,282.1,2307.6,1246.8,1217.8,1962.7,2485.7,195,73.8
0.061485,1190.5,820.9,1928.9,283.7,2364.7,1352.5,1251.9,1950.7,2521.7,195.5,73.7
0.063485,1225.6,800.3,1911.0,274.1,2481.9,1511.6,1282.7,1938.1,2566.4,196,73.7
0.065485,1270.0,790.7,1899.8,265.0,2714.9,1612.5,1309.6,1925,2618.2,196.6,73.8
0.067485,1324.5,774.9,1893.0,263.3,2919.6,1391.7,1332.4,1911.5,2675.1,197.2,73.8
0.069485,1382.1,734.8,1889.6,272.1,3013.0,1170.9,1350.5,1897.8,2735.1,197.9,73.8
0.071485,1435.0,678.3,1889.8,291.8,3060.2,1018.0,1363.8,1884,2796,198.7,73.8
0.073485,1480.6,627.2,1890.9,317.0,3079.5,929.5,1372.2,1870.2,2855.9,199.4,73.8
0.075485,1518.3,603.0,1885.8,337.1,3075.5,898.4,1375.7,1856.7,2912.6,200.3,73.8
0.077485,1542.6,630.0,1867.3,338.9,3043.7,916.0,1374.3,1843.6,2964.4,201.2,73.8
0.079485,1537.7,760.6,1835.0,310.3,2987.4,1003.8,1368.4,1831.1,3009.8,202.1,73.8
0.081485,1464.3,996.5,1808.2,261.8,2930.2,1181.2,1358.4,1819.3,3047.5,203,73.7
0.083485,1321.1,1139.9,1794.9,224.5,2916.8,1370.5,1344.6,1808.4,3076.8,204,73.7
0.085485,1223.6,1117.9,1787.0,199.9,2981.7,1462.4,1327.8,1798.5,3097.2,205.1,73.6
0.087485,1184.7,1085.5,1778.1,184.2,3052.4,1402.4,1308.5,1789.8,3108.6,206.1,73.6
0.089485,1163.8,1069.6,1767.6,177.7,3053.1,1246.5,1287.4,1782.3,3111.3,207.2,73.5
0.091485,1148.2,1044.6,1758.7,179.8,3011.6,1086.6,1265.2,1776.1,3106.2,208.3,73.5
0.093485,1139.8,1000.2,1755.2,188.9,2978.9,989.1,1242.7,1771.2,3094.2,209.4,73.5
0.095485,1145.8,939.3,1760.3,201.5,2974.0,968.3,1220.5,1767.4,3076.7,210.6,73.5
0.097485,1162.7,860.1,1774.2,211.7,2993.2,995.2,1199.3,1764.9,3055,211.7,73.5
0.099485,1172.7,770.0,1791.7,213.6,3016.8,1015.4,1179.5,1763.3,3030.8,212.9,73.6
0.101485,1167.6,693.0,1803.4,209.8,3022.5,979.7,1161.8,1762.6,3005.7,214,73.6
0.103485,1156.2,641.7,1803.5,211.3,3012.3,891.3,1146.2,1762.4,2981.4,215.2,73.6
0.105485,1149.5,614.2,1792.9,226.4,3002.7,806.6,1133.1,1762.7,2959.3,216.4,73.6
0.107485,1152.0,592.0,1777.6,252.8,2996.0,747.6,1122.6,1763,2940.7,217.5,73.6
0.109485,1158.8,561.9,1765.5,278.5,2989.5,708.0,1114.4,1763.1,2926.7,218.7,73.7
0.111485,1161.1,535.7,1757.0,294.5,2982.3,679.8,1108.4,1762.6,2918,219.8,73.8
0.113485,1157.2,525.6,1746.7,302.6,2976.3,646.7,1104.2,1761.2,2915.2,221,73.8
0.115485,1151.6,530.1,1733.0,308.7,2974.9,597.2,1101.4,1758.5,2918.4,222.1,73.8
0.117485,1148.2,543.4,1718.9,314.0,2978.2,535.0,1099.4,1754.1,2927.4,223.2,73.8
0.119485,1145.6,560.8,1709.4,315.9,2983.4,477.8,1097.5,1747.9,2941.8,224.3,73.8
0.121485,1137.3,584.9,1706.7,313.3,2990.1,446.8,1095,1739.5,2960.8,225.4,73.7
0.123485,1116.5,624.9,1706.5,309.6,2998.3,451.4,1091.4,1728.6,2983.5,226.4,73.6
0.125485,1081.4,680.3,1703.0,310.0,3004.4,483.4,1085.9,1715.2,3008.6,227.5,73.5
0.127485,1038.6,728.5,1693.5,320.6,3005.8,517.1,1077.9,1699.1,3035.1,228.5,73.4
0.129485,1005.4,737.8,1680.2,351.4,3012.0,526.1,1066.9,1680.2,3061.5,229.4,73.3
0.131485,994.4,702.9,1665.4,414.1,3037.0,510.2,1052.5,1658.6,3086.7,230.4,73.3
0.133485,995.7,650.4,1647.8,504.8,3069.7,485.4,1034.4,1634.4,3109.4,231.3,73.3
0.135485,992.9,606.8,1626.8,590.8,3093.6,461.5,1012.5,1607.8,3128.7,232.1,73.3
0.137485,977.8,586.1,1607.9,633.7,3109.7,447.2,986.7,1579,3143.8,233,73.3
0.139485,950.9,588.7,1595.4,631.6,3127.1,448.4,957.4,1548.6,3154,233.8,73.4
0.141485,919.8,598.9,1585.1,614.8,3148.9,451.6,924.8,1516.7,3159.1,234.5,73.3
0.143485,895.3,611.9,1563.3,621.2,3167.2,440.9,889.6,1484,3159,235.3,73.2
0.145485,876.2,659.8,1506.6,675.8,3172.0,426.7,852.2,1450.9,3154,236,73.1
0.147485,829.8,792.6,1381.8,718.1,3159.2,423.9,813.7,1418,3144.6,236.6,72.9
0.149485,716.3,855.3,1273.2,601.6,3125.8,412.3,774.7,1385.9,3131.5,237.2,72.7
0.151485,675.9,831.1,1247.0,522.6,3083.7,357.1,736.3,1355.2,3115.5,237.8,72.5
0.153485,691.6,817.7,1258.0,487.6,3058.5,288.9,699.5,1326.5,3097.8,238.3,72.3
0.155485,704.2,772.6,1278.2,444.3,3054.2,245.2,665.2,1300.3,3079.4,238.8,72.1
0.157485,682.0,725.4,1284.4,394.7,3061.2,226.2,634.3,1277.1,3061.4,239.3,71.8
0.159485,635.5,656.1,1276.4,346.3,3065.8,221.9,607.8,1257.5,3045,239.7,71.6
0.161485,595.1,554.9,1263.9,301.1,3061.7,225.2,586.3,1241.7,3031.2,240.1,71.5
0.163485,573.0,463.6,1254.6,268.5,3051.7,230.6,570.5,1230.3,3020.6,240.5,71.3
0.165485,562.1,398.6,1249.6,254.1,3041.3,236.8,560.8,1223.3,3014.1,240.8,71.2
0.167485,555.8,353.7,1246.2,256.3,3033.7,245.9,557.5,1221,3011.8,241.1,71.1
