time,f1,b1,f2,b2,f3,b3,f1p,f2p,f3p,f0,intensity
0.025866,487.1,155.7,1738.8,1230.8,3050.0,740.9,489.8,1516,2983.1,139.9,65
0.027866,487.7,137.4,1589.2,1213.5,3057.8,619.1,491.5,1496.2,2983.2,139.7,65.7
0.029866,491.9,127.2,1464.8,1224.7,3044.0,538.7,494.2,1464.2,2983.4,139.5,66.3
0.031866,499.7,126.8,1337.8,1199.4,3007.9,497.9,497.8,1421.5,2983.4,139.3,66.9
0.033866,506.6,128.8,1229.8,1030.7,2970.6,452.4,502,1370.1,2983,139.1,67.4
0.035866,510.0,123.8,1168.3,818.0,2955.2,388.5,506.7,1312.3,2982.1,138.9,67.8
0.037866,512.4,112.2,1142.6,697.1,2957.0,325.6,511.6,1250.7,2980.4,138.6,68.2
0.039866,517.0,100.5,1124.4,659.2,2952.2,265.4,516.3,1188.1,2977.7,138.3,68.6
0.041866,522.2,92.9,1101.5,663.7,2935.9,218.6,520.7,1127.3,2973.9,138,68.9
0.043866,525.6,87.4,1076.7,661.2,2916.2,183.5,524.5,1070.9,2968.8,137.7,69.1
0.045866,527.0,83.2,1063.3,652.7,2901.7,161.0,527.5,1021.2,2962.4,137.4,69.2
0.047866,528.1,82.4,1056.1,671.3,2895.5,146.6,529.3,980.3,2954.7,137,69.3
0.049866,529.8,86.3,1040.4,723.9,2897.1,132.7,530,949.5,2945.9,136.7,69.3
0.051866,530.9,90.6,1018.5,770.9,2902.7,119.8,529.4,929.9,2936.2,136.3,69.2
0.053866,528.6,92.1,1001.4,771.4,2907.8,111.0,527.5,921.9,2926,135.9,69.1
0.055866,522.5,91.8,989.8,719.8,2909.2,112.8,524.3,925,2915.5,135.5,68.9
0.057866,514.4,92.5,972.6,648.5,2904.5,134.0,519.9,938.6,2905.4,135.1,68.8
0.059866,508.7,96.2,955.0,618.5,2894.9,187.6,514.4,961.1,2896.1,134.7,68.6
0.061866,505.3,104.3,951.5,656.2,2891.2,264.2,508,990.8,2888.1,134.2,68.5
0.063866,500.2,116.2,969.5,740.8,2902.7,319.2,501,1025.4,2882,133.8,68.4
0.065866,494.6,127.1,1002.1,842.2,2923.8,319.9,493.5,1062.4,2878.2,133.4,68.4
0.067866,490.5,133.6,1041.8,953.7,2942.7,303.2,485.9,1099.3,2877.2,133,68.3
0.069866,484.1,133.8,1077.7,1010.5,2951.6,307.4,478.4,1133.4,2879.2,132.5,68.3
0.071866,473.3,127.9,1100.8,968.5,2951.9,335.4,471.1,1162.3,2884.4,132.1,68.2
0.073866,462.3,116.7,1120.2,875.2,2949.8,362.0,464.5,1183.8,2893,131.7,68.2
0.075866,456.6,106.2,1141.3,817.8,2949.3,372.0,458.5,1196.2,2904.7,131.3,68.2
0.077866,453.6,101.4,1171.1,853.3,2947.3,390.1,453.4,1198.2,2919.4,130.9,68.2
0.079866,451.4,103.6,1207.8,1021.4,2947.7,427.2,449.1,1189,2936.5,130.5,68.2
0.081866,451.4,109.3,1268.3,1367.0,2966.7,450.1,445.9,1168.5,2955.6,130.2,68.3
0.083866,452.8,114.1,1353.2,1781.1,2990.9,444.5,443.5,1137,2975.9,129.8,68.4
0.085866,449.0,116.7,1137.3,1771.0,2991.3,511.4,441.9,1095.7,2996.7,129.5,68.5
0.087866,439.1,116.8,988.7,1301.9,2936.7,586.2,440.9,1046,3017.1,129.2,68.6
0.089866,430.4,113.0,947.5,1033.5,2900.0,583.9,440.5,990,3036.1,128.9,68.6
0.091866,426.9,109.6,924.5,919.2,2896.8,609.5,440.3,930,3052.9,128.6,68.7
0.093866,427.4,110.8,895.0,911.7,2929.9,655.7,440.2,868.6,3066.8,128.3,68.8
0.095866,429.4,114.3,853.0,961.6,2992.5,683.7,439.8,808.6,3076.9,128,68.9
0.097866,434.9,116.4,798.0,1086.2,3078.6,685.5,439.1,752.7,3082.6,127.8,69
0.099866,443.8,115.4,731.8,1332.6,3165.0,623.6,437.7,703.4,3083.5,127.5,69
0.101866,451.3,112.5,633.9,1734.0,3185.3,548.8,435.5,663.2,3079.3,127.3,69.1
0.103866,452.6,111.5,548.0,2035.0,3153.8,585.5,432.4,634.1,3070,127.1,69.1
0.105866,450.8,111.1,560.4,2018.7,3084.7,677.5,428.2,617.5,3055.8,126.9,69
0.107866,450.5,110.7,534.2,2038.2,3019.2,710.8,422.9,614.5,3036.9,126.7,68.9
0.109866,277.9,2314.1,451.5,112.3,2998.7,686.1,416.6,625.6,3014,126.6,68.8
0.113866,444.2,120.7,753.4,6765.3,3009.6,545.3,409.2,650.7,2987.8,126.3,68.5
0.115866,433.5,128.7,1000.9,4963.8,3017.8,466.7,400.9,689.3,2959.2,126.2,68.2
0.117866,418.2,140.3,476.1,2631.2,3015.6,420.3,391.8,740.1,2929.2,126.1,67.9
0.119866,395.6,149.2,864.5,1684.8,2983.3,398.9,382.2,801.8,2898.9,126,67.6
0.121866,370.9,143.8,949.5,1249.2,2916.8,379.7,372.3,872.3,2869.3,126,67.2
0.123866,353.6,132.5,988.0,1074.2,2850.6,363.7,362.2,949.5,2841.5,125.9,66.9
0.125866,341.7,129.3,1030.7,1080.6,2799.6,398.7,352.3,1031.1,2816.5,125.9,66.6
0.127866,332.4,131.8,1084.5,1174.2,2760.2,497.4,342.8,1114.8,2795.1,125.8,66.3
0.129866,325.5,130.8,1143.1,1272.3,2725.3,620.6,333.8,1198.4,2778.1,125.8,66.1
0.131866,321.9,125.2,1205.9,1379.1,2703.7,711.5,325.6,1279.6,2765.9,125.8,65.8
0.133866,317.7,117.0,1294.2,1510.6,2687.6,748.9,318.4,1356.7,2758.9,125.9,65.6
0.135866,310.9,101.3,1445.4,1539.5,2678.7,751.4,312.1,1428.1,2757.1,125.9,65.2
0.137866,305.9,81.9,1591.0,1233.2,2713.8,745.7,306.9,1492.7,2760.3,125.9,64.9
0.139866,304.8,69.2,1651.5,819.6,2783.0,707.4,302.8,1549.7,2768.1,126,64.5
0.141866,304.4,68.6,1669.2,587.9,2833.5,675.4,299.8,1598.7,2780,126.1,64.2
0.143866,302.2,75.4,1676.1,494.6,2859.7,679.4,297.6,1639.7,2795.1,126.2,64
0.145866,300.9,79.9,1669.5,489.6,2849.0,715.3,296.4,1673,2812.5,126.2,63.8
0.147866,301.0,79.3,1648.2,518.8,2805.5,737.8,295.8,1699.3,2831.3,126.3,63.8
0.149866,299.9,77.3,1628.5,541.5,2766.1,725.2,295.8,1719.4,2850.3,126.4,63.8
0.151866,298.0,75.0,1635.0,558.8,2753.2,750.5,296.2,1734.1,2868.6,126.6,63.8
0.153866,297.8,70.7,1675.9,586.9,2770.5,870.1,296.7,1744.4,2885.1,126.7,63.9
0.155866,298.7,64.8,1745.0,581.3,2878.3,1021.6,297.3,1751.4,2898.9,126.8,64
0.157866,297.1,55.4,1795.4,520.0,3024.6,892.5,297.9,1755.7,2909.3,126.9,64.2
0.159866,293.0,44.4,1807.8,491.1,3033.0,715.8,298.2,1758,2915.8,127,64.4
0.161866,289.7,36.7,1818.8,535.4,3007.8,643.6,298.4,1758.7,2918,127.1,64.7
