time,f1,b1,f2,b2,f3,b3,f1p,f2p,f3p,f0,intensity
0.025834,950.6,820.1,1709.0,205.5,2650.3,1157.5,1043.4,1729.8,2677.8,177.4,70.6
0.027834,1002.3,634.1,1719.9,167.8,2656.9,953.6,1047,1730.1,2676.3,177.4,70.6
0.029834,1037.0,533.1,1725.3,140.4,2645.0,818.0,1052.8,1730.6,2674.1,177.3,70.6
0.031834,1071.3,469.8,1729.6,122.2,2645.2,726.9,1060.7,1731.2,2671.2,177.3,70.7
0.033834,1098.2,431.5,1733.7,112.9,2662.1,665.9,1070.2,1732,2668.1,177.2,70.8
0.035834,1115.5,405.8,1738.3,108.7,2685.6,619.7,1081.1,1732.9,2665,177.2,70.9
0.037834,1125.2,388.7,1743.4,106.7,2702.6,596.4,1093,1734,2662.4,177.1,71
0.039834,1133.1,384.5,1747.8,105.6,2710.6,616.4,1105.3,1735.1,2660.7,177.1,71.1
0.041834,1144.0,397.4,1750.5,105.7,2709.8,696.1,1117.8,1736.2,2660.3,177,71.2
0.043834,1156.8,421.1,1750.9,107.0,2695.8,818.4,1130,1737.4,2661.6,176.9,71.2
0.045834,1168.6,449.6,1749.4,109.7,2669.9,961.8,1141.5,1738.5,2664.9,176.9,71.2
0.047834,1177.3,480.0,1746.5,113.6,2646.7,1107.9,1152.2,1739.5,2670.4,176.8,71.2
0.049834,1181.0,503.2,1742.7,116.4,2650.0,1201.9,1161.6,1740.3,2678.3,176.7,71.2
0.051834,1175.4,497.5,1738.5,114.7,2686.8,1116.7,1169.8,1740.9,2688.7,176.6,71.1
0.053834,1166.4,468.2,1736.0,111.4,2716.2,926.9,1176.6,1741.2,2701.5,176.5,71
0.055834,1160.6,440.0,1734.2,110.7,2726.9,792.9,1182.1,1741.1,2716.6,176.5,70.9
0.057834,1157.5,423.0,1730.5,112.9,2727.2,741.6,1186.4,1740.6,2733.8,176.4,70.9
0.059834,1156.3,420.1,1724.2,117.0,2725.1,754.0,1189.7,1739.7,2752.7,176.3,70.8
0.061834,1158.2,434.3,1719.1,122.1,2729.3,821.3,1192.2,1738.3,2772.9,176.2,70.8
0.063834,1164.5,463.2,1718.5,128.2,2742.0,943.0,1194.2,1736.5,2794,176.1,70.8
0.065834,1174.9,499.4,1722.2,134.2,2759.8,1103.1,1196,1734.2,2815.4,176,70.8
0.067834,1188.7,536.0,1727.3,137.5,2787.8,1270.3,1197.8,1731.4,2836.7,175.9,70.8
0.069834,1206.7,568.0,1732.4,136.6,2845.2,1416.3,1199.9,1728.3,2857.3,175.9,70.8
0.071834,1222.9,587.5,1736.5,132.3,2925.9,1470.1,1202.6,1724.8,2876.7,175.8,70.8
0.073834,1229.8,597.9,1738.8,126.4,2983.8,1373.1,1206,1721.1,2894.5,175.7,70.8
0.075834,1225.3,608.8,1738.8,122.1,2993.2,1183.0,1210.3,1717.3,2910.4,175.7,70.8
0.077834,1216.7,628.7,1736.2,122.7,2984.9,999.0,1215.5,1713.5,2923.9,175.6,70.8
0.079834,1213.1,661.3,1730.1,128.8,2971.8,838.8,1221.6,1709.8,2934.8,175.6,70.8
0.081834,1220.5,701.1,1720.1,136.2,2957.7,718.9,1228.4,1706.3,2943,175.5,70.7
0.083834,1237.7,742.7,1706.4,141.0,2945.5,633.6,1235.7,1703.2,2948.5,175.5,70.7
0.085834,1256.9,779.7,1691.6,140.8,2934.9,580.5,1243.3,1700.5,2951.2,175.5,70.7
0.087834,1269.5,816.6,1679.0,137.7,2922.2,557.0,1251,1698.5,2951.3,175.5,70.6
0.089834,1274.0,871.2,1670.8,137.0,2905.6,571.5,1258.3,1697.1,2948.9,175.5,70.5
0.091834,1275.5,942.6,1669.3,145.5,2889.3,628.1,1265,1696.5,2944.3,175.5,70.4
0.093834,1277.4,982.9,1675.4,168.4,2873.9,689.3,1270.6,1696.6,2937.6,175.5,70.3
0.095834,1279.2,933.1,1690.2,206.8,2869.4,703.7,1274.8,1697.5,2929.2,175.5,70.3
0.097834,1281.0,829.3,1709.8,252.6,2881.1,685.7,1277.4,1699.1,2919.4,175.6,70.2
0.099834,1283.8,758.5,1720.2,282.9,2896.0,669.9,1278.1,1701.4,2908.5,175.6,70.2
0.101834,1283.4,736.4,1717.5,284.6,2908.6,658.3,1276.7,1704.3,2896.7,175.7,70.2
0.103834,1272.8,740.4,1710.3,256.7,2921.8,638.2,1273.2,1707.7,2884.2,175.7,70.3
0.105834,1253.3,738.1,1708.4,217.0,2934.7,602.7,1267.3,1711.4,2871.3,175.8,70.3
0.107834,1232.8,724.5,1713.6,182.4,2936.3,565.5,1259.3,1715.3,2858.2,175.9,70.4
0.109834,1218.4,714.9,1722.2,162.7,2918.9,556.9,1249.2,1719.2,2845,175.9,70.4
0.111834,1209.4,702.7,1731.1,153.9,2882.8,568.9,1237.2,1723,2831.8,176,70.5
0.113834,1203.5,665.6,1738.3,152.2,2835.8,563.8,1223.6,1726.5,2818.6,176.1,70.5
0.115834,1197.9,602.4,1742.9,154.6,2791.1,525.9,1208.5,1729.5,2805.6,176.2,70.6
0.117834,1190.6,541.3,1742.8,159.8,2754.0,479.0,1192.5,1732,2792.7,176.2,70.6
0.119834,1181.4,519.4,1735.6,166.2,2727.3,460.0,1175.6,1733.9,2780,176.3,70.5
0.121834,1167.1,535.8,1723.1,170.4,2707.0,469.4,1158.5,1735.1,2767.5,176.4,70.5
0.123834,1146.8,563.7,1713.4,168.3,2698.4,480.2,1141.3,1735.5,2755.2,176.4,70.4
0.125834,1126.4,572.6,1713.3,163.2,2708.8,461.4,1124.4,1735.2,2743.1,176.5,70.2
0.127834,1114.1,569.4,1720.8,166.3,2726.4,432.2,1108,1734.3,2731.4,176.5,70
0.129834,1107.5,578.6,1729.7,183.8,2739.2,427.6,1092.5,1732.7,2720.1,176.6,69.8
0.131834,1102.5,602.3,1734.8,212.5,2741.4,453.4,1078.1,1730.7,2709.2,176.6,69.6
0.133834,1096.2,633.8,1734.4,245.0,2730.9,500.8,1064.9,1728.3,2699,176.6,69.4
0.135834,1087.1,659.0,1731.5,273.0,2710.8,554.5,1053.1,1725.7,2689.5,176.7,69.1
0.137834,1076.5,661.3,1731.6,285.5,2692.5,589.5,1042.7,1723,2680.9,176.7,68.9
0.139834,1064.4,656.8,1734.7,289.0,2679.9,602.5,1033.9,1720.4,2673.3,176.7,68.6
0.141834,1051.0,680.9,1736.8,298.4,2673.8,594.8,1026.6,1718,2666.9,176.7,68.3
0.143834,1033.3,759.4,1732.5,325.1,2667.6,566.7,1020.9,1716,2661.8,176.7,68
0.145834,1004.6,903.0,1717.2,371.3,2653.3,526.1,1016.9,1714.5,2658,176.6,67.7
0.147834,965.0,1046.5,1697.0,408.0,2640.4,485.6,1014.5,1713.6,2655.7,176.6,67.5
0.149834,913.8,1105.3,1685.4,392.7,2640.0,452.2,1013.7,1713.3,2654.9,176.6,67.4
