time,f1,b1,f2,b2,f3,b3,f1p,f2p,f3p,f0,intensity
0.025673,628.9,513.2,1664.2,168.6,2860.9,813.7,691.3,1648.8,2902.9,147.1,62.1
0.027673,659.0,422.8,1660.3,145.5,2899.1,582.5,693.7,1647.5,2903.1,147,63
0.029673,685.4,360.2,1659.4,143.2,2921.0,402.8,697.6,1645.4,2903.3,146.9,63.7
0.031673,709.0,308.6,1659.9,160.9,2929.4,299.7,703,1642.8,2903.4,146.8,64.1
0.033673,728.1,272.6,1661.4,195.1,2930.7,250.5,709.7,1639.8,2903.2,146.7,64.4
0.035673,742.3,250.9,1660.3,231.3,2925.6,232.5,717.6,1636.7,2902.5,146.6,64.6
0.037673,751.5,234.4,1645.6,260.6,2912.0,232.3,726.6,1633.8,2901.1,146.5,64.6
0.039673,756.7,218.4,1611.1,289.6,2889.5,237.8,736.6,1631.4,2898.8,146.4,64.6
0.041673,761.0,205.1,1572.0,318.6,2866.8,237.3,747.2,1629.6,2895.3,146.4,64.4
0.043673,768.2,199.6,1555.9,355.6,2853.5,240.3,758.4,1628.9,2890.7,146.3,64.2
0.045673,779.8,202.3,1575.6,415.6,2849.7,258.3,769.9,1629.3,2884.7,146.3,63.9
0.047673,793.6,205.4,1621.6,472.1,2853.2,279.9,781.5,1631,2877.5,146.3,63.6
0.049673,804.9,204.0,1655.1,454.4,2859.8,283.3,793,1634.2,2869,146.3,63.3
0.051673,814.0,201.3,1655.2,367.4,2866.8,276.9,804.3,1638.8,2859.4,146.3,63.1
0.053673,822.9,198.7,1647.8,282.8,2876.8,289.3,815,1644.7,2849.1,146.4,63
0.055673,830.7,197.4,1651.1,233.9,2886.8,336.3,825.1,1652,2838.2,146.4,62.8
0.057673,836.3,200.7,1666.5,214.0,2888.0,423.9,834.5,1660.2,2827.2,146.5,62.7
0.059673,839.5,211.2,1688.1,210.7,2868.9,551.7,842.9,1669.3,2816.4,146.6,62.7
0.061673,839.1,224.8,1704.3,213.9,2817.4,660.5,850.2,1678.9,2806.2,146.7,62.6
0.063673,835.3,234.5,1708.4,214.8,2757.5,632.6,856.4,1688.8,2797.1,146.8,62.5
0.065673,833.5,243.8,1708.1,209.2,2734.0,497.3,861.5,1698.5,2789.3,146.9,62.5
0.067673,838.6,258.3,1712.7,200.0,2739.0,372.0,865.3,1707.9,2783.3,147.1,62.6
0.069673,848.2,271.5,1721.0,188.8,2753.1,298.8,867.9,1716.6,2779.3,147.2,62.6
0.071673,857.0,278.5,1730.0,177.9,2769.7,271.5,869.3,1724.3,2777.3,147.4,62.6
0.073673,864.6,281.3,1738.3,169.9,2786.1,275.3,869.5,1731,2777.5,147.6,62.6
0.075673,870.4,279.4,1743.0,165.8,2797.8,295.5,868.5,1736.5,2779.8,147.8,62.6
0.077673,869.5,271.3,1741.3,166.3,2799.8,316.4,866.5,1740.7,2783.9,148,62.6
0.079673,861.4,257.7,1735.3,169.7,2791.3,325.9,863.6,1743.7,2789.8,148.2,62.6
0.081673,854.1,242.8,1731.4,171.3,2780.9,320.4,859.7,1745.5,2796.9,148.4,62.6
0.083673,853.3,233.8,1732.9,169.6,2780.6,307.6,854.9,1746.4,2804.8,148.6,62.6
0.085673,857.4,234.8,1738.4,167.3,2794.6,293.0,849.5,1746.5,2813.1,148.8,62.6
0.087673,862.6,242.8,1743.9,166.1,2819.3,279.2,843.3,1746.1,2821.3,149,62.5
0.089673,864.6,251.5,1745.2,166.0,2846.8,273.7,836.5,1745.4,2828.8,149.2,62.5
0.091673,862.1,261.1,1741.7,167.6,2872.5,280.1,829.1,1744.8,2835.2,149.4,62.4
0.093673,855.9,273.8,1735.7,170.6,2891.8,291.2,821.2,1744.5,2840.1,149.6,62.3
0.095673,845.4,284.5,1729.4,173.2,2894.9,290.9,812.8,1744.8,2843.1,149.8,62.2
0.097673,828.0,289.2,1724.9,180.1,2874.8,269.4,803.8,1745.8,2844,150,62.1
0.099673,801.6,292.4,1724.3,205.6,2842.4,236.3,794.3,1747.9,2842.7,150.2,62
0.101673,772.8,297.2,1731.0,268.2,2815.1,212.2,784.3,1751,2839.3,150.4,62
0.103673,752.0,298.5,1750.2,365.9,2797.3,208.6,773.6,1755.2,2833.7,150.6,61.9
0.105673,735.4,285.3,1776.1,399.7,2784.2,223.9,762.4,1760.4,2826.4,150.8,61.9
0.107673,716.7,263.0,1791.0,312.7,2768.8,252.7,750.4,1766.7,2817.6,151,61.9
0.109673,700.7,256.1,1799.9,232.9,2752.3,287.3,737.8,1773.8,2807.7,151.2,62
0.111673,686.2,277.6,1810.1,199.8,2754.3,297.5,724.5,1781.6,2797.4,151.3,62.3
0.113673,671.6,322.3,1820.8,196.0,2772.8,284.0,710.5,1789.8,2787.1,151.5,62.5
0.115673,662.0,373.4,1828.0,208.1,2788.2,274.3,695.8,1798.2,2777.4,151.6,62.8
0.117673,662.9,428.7,1829.6,229.6,2795.9,278.3,680.5,1806.5,2768.8,151.8,63.1
0.119673,671.3,496.9,1828.3,251.8,2800.4,287.6,664.6,1814.4,2761.7,151.9,63.4
0.121673,677.0,562.0,1827.7,254.8,2807.8,289.6,648.1,1821.8,2756.5,152.1,63.6
0.123673,669.5,590.9,1827.2,230.1,2817.0,288.6,631.3,1828.3,2753.6,152.2,63.9
0.125673,648.0,580.7,1824.2,194.6,2819.9,301.8,614.3,1834,2753,152.3,64.1
0.127673,622.7,549.2,1817.4,163.7,2804.6,327.9,597.2,1838.5,2754.8,152.5,64.3
0.129673,604.0,511.2,1808.1,142.6,2772.1,336.7,580.3,1842.1,2758.9,152.6,64.5
0.131673,588.1,476.4,1799.5,131.6,2739.9,325.7,563.7,1844.5,2765.1,152.7,64.7
0.133673,567.1,444.4,1796.0,128.2,2710.7,315.4,547.8,1846,2773,152.8,64.8
0.135673,543.8,415.1,1802.1,128.7,2689.7,314.1,532.6,1846.6,2782.1,152.9,64.9
0.137673,524.5,389.7,1819.3,125.7,2691.0,332.8,518.6,1846.4,2792,153,64.9
0.139673,508.4,370.5,1841.0,112.5,2731.3,368.3,505.8,1845.8,2802.1,153,64.9
0.141673,493.6,365.8,1857.1,95.5,2815.2,359.5,494.6,1844.8,2811.9,153.1,64.9
0.143673,481.3,379.6,1864.8,86.1,2872.6,268.5,485.1,1843.6,2820.8,153.2,64.9
0.145673,470.2,401.6,1867.2,87.9,2883.7,219.2,477.6,1842.5,2828.2,153.2,64.7
0.147673,458.5,416.6,1867.5,98.8,2878.4,227.4,472.1,1841.6,2833.9,153.3,64.5
0.149673,446.4,420.7,1866.3,112.2,2861.3,278.5,468.7,1841,2837.4,153.4,64.2
0.151673,432.6,414.7,1862.6,122.0,2831.0,344.3,467.6,1840.7,2838.6,153.4,63.8
