time,f1,b1,f2,b2,f3,b3,f1p,f2p,f3p,f0,intensity
0.025605,695.6,382.8,1353.7,286.9,2785.4,1074.1,770.6,1401.2,2834.5,210.7,68.7
0.027605,718.4,362.0,1366.4,268.5,2776.8,1029.0,770.9,1402.1,2834.9,210.5,69.6
0.029605,739.2,342.7,1381.3,246.8,2765.5,979.2,771.4,1403.5,2835.6,210.4,70.2
0.031605,754.2,318.0,1396.4,217.9,2755.5,922.7,772,1405.4,2836.5,210.2,70.6
0.033605,763.8,283.3,1410.8,181.1,2747.0,867.4,772.8,1407.8,2837.7,210,70.9
0.035605,768.7,246.7,1421.6,147.5,2739.4,846.2,773.7,1410.6,2839.3,209.9,71.1
0.037605,771.4,212.5,1429.4,119.3,2734.7,889.5,774.6,1413.8,2841.2,209.7,71.3
0.039605,774.2,188.9,1435.1,100.3,2748.5,1021.8,775.6,1417.3,2843.5,209.5,71.3
0.041605,779.4,175.3,1441.1,86.8,2821.1,1269.6,776.5,1421,2846.2,209.4,71.4
0.043605,786.8,168.6,1446.6,77.1,2979.6,1509.5,777.3,1424.8,2849.4,209.3,71.4
0.045605,794.5,161.7,1450.1,69.8,3123.1,1594.0,777.9,1428.6,2853,209.2,71.4
0.047605,799.0,152.3,1450.6,66.5,3113.9,1609.5,778.2,1432.4,2857.2,209.1,71.4
0.049605,800.9,139.5,1449.3,64.9,2993.2,1557.1,778.3,1435.9,2862,209,71.4
0.051605,801.8,126.1,1448.2,62.9,2904.4,1367.5,777.9,1439.2,2867.3,209,71.4
0.053605,802.3,113.5,1447.9,59.9,2893.3,1067.5,777.2,1442,2873.3,209,71.4
0.055605,801.7,103.4,1447.6,57.3,2897.4,782.2,775.9,1444.4,2879.9,209.1,71.4
0.057605,799.5,94.5,1446.0,55.7,2893.7,557.7,774.1,1446.1,2887.1,209.2,71.4
0.059605,796.1,86.7,1443.2,55.3,2888.4,420.3,771.6,1447.2,2895.1,209.3,71.4
0.061605,791.9,79.7,1439.9,55.4,2887.1,351.9,768.5,1447.4,2903.7,209.5,71.4
0.063605,786.6,73.6,1436.7,55.5,2891.2,312.4,764.6,1446.7,2913,209.7,71.4
0.065605,780.9,70.5,1434.1,55.9,2901.0,284.1,760,1445,2923,210,71.3
0.067605,773.9,71.2,1432.2,57.9,2916.4,259.1,754.7,1442.3,2933.6,210.3,71.1
0.069605,765.9,75.8,1430.9,62.3,2932.8,240.9,748.5,1438.5,2944.8,210.7,70.9
0.071605,755.4,84.3,1429.6,71.6,2948.7,227.4,741.6,1433.6,2956.6,211.1,70.7
0.073605,743.2,95.4,1427.3,87.0,2961.5,218.1,733.8,1427.4,2968.9,211.6,70.5
0.075605,728.4,109.3,1421.6,111.2,2972.9,210.4,725.3,1420.1,2981.7,212.1,70.3
0.077605,713.3,124.3,1409.6,137.7,2982.8,203.0,716,1411.6,2994.9,212.7,70.2
0.079605,697.2,138.7,1390.2,152.5,2994.1,192.8,705.9,1401.9,3008.4,213.3,70.2
0.081605,681.7,145.5,1371.1,143.0,3008.7,177.9,695.2,1391,3022.1,213.9,70.4
0.083605,666.2,141.3,1355.0,117.8,3028.1,154.9,683.8,1379.1,3036.1,214.6,70.6
0.085605,652.6,126.8,1342.0,92.0,3046.8,128.7,671.8,1366.1,3050.1,215.3,70.9
0.087605,640.8,105.9,1330.5,70.3,3063.1,105.1,659.3,1352.3,3064.1,216,71.2
0.089605,632.8,88.6,1323.5,56.8,3077.0,90.2,646.3,1337.6,3077.9,216.8,71.5
0.091605,627.8,78.9,1321.0,50.8,3092.2,82.4,633,1322.2,3091.6,217.5,71.6
0.093605,624.4,78.6,1321.2,52.9,3108.2,80.0,619.4,1306.2,3104.9,218.3,71.7
0.095605,620.4,87.2,1321.1,64.4,3125.5,81.3,605.6,1289.9,3117.8,219,71.6
0.097605,614.0,106.0,1317.3,89.0,3143.0,86.1,591.7,1273.3,3130.3,219.8,71.4
0.099605,603.6,137.0,1305.4,126.5,3159.8,91.7,577.8,1256.7,3142.1,220.5,71.1
0.101605,585.8,184.8,1279.5,165.6,3175.0,94.7,564,1240.3,3153.3,221.3,70.9
0.103605,559.7,235.3,1246.4,174.9,3184.0,93.5,550.3,1224.3,3163.8,222,70.6
0.105605,525.6,269.7,1214.2,153.2,3186.4,90.1,536.9,1208.9,3173.4,222.7,70.5
0.107605,494.4,271.0,1188.8,122.9,3182.0,87.4,523.9,1194.3,3182.2,223.4,70.4
0.109605,468.9,245.0,1167.4,96.4,3172.5,86.6,511.3,1180.8,3190.1,224.1,70.4
0.111605,452.3,211.3,1153.0,81.5,3162.7,88.7,499.3,1168.6,3197,224.7,70.5
0.113605,441.6,181.0,1145.3,78.0,3156.6,95.2,487.9,1157.9,3203,225.3,70.6
0.115605,435.1,157.8,1145.1,85.5,3157.5,104.2,477.1,1149.1,3208.1,225.9,70.8
0.117605,430.3,135.8,1151.7,106.1,3165.3,111.3,467.1,1142.2,3212.2,226.4,70.9
0.119605,427.4,116.0,1166.1,145.3,3177.7,112.6,457.8,1137.6,3215.4,226.9,71.1
0.121605,427.1,98.6,1194.8,219.6,3192.6,110.2,449.3,1135.5,3217.7,227.4,71.3
0.123605,429.1,86.3,1233.8,318.2,3205.9,109.2,441.7,1136,3219.1,227.8,71.6
0.125605,431.7,79.1,1258.7,409.0,3216.6,114.1,435,1139.4,3219.8,228.2,71.7
0.127605,432.4,75.2,1238.2,461.5,3224.0,125.1,429.1,1145.8,3219.8,228.5,71.9
0.129605,430.7,71.0,1180.9,480.1,3228.8,134.9,424.1,1155.4,3219.2,228.8,72
0.131605,428.2,67.1,1125.3,474.6,3231.2,134.6,420,1168.3,3218.1,229.1,72
0.133605,427.0,65.9,1099.2,482.8,3234.9,129.0,416.7,1184.7,3216.6,229.4,71.9
0.135605,428.5,69.0,1111.8,529.9,3242.4,125.9,414.2,1204.5,3214.7,229.6,71.8
0.137605,432.9,76.0,1168.7,585.8,3250.7,130.3,412.5,1227.9,3212.7,229.8,71.7
0.139605,439.0,84.8,1240.2,608.5,3253.2,149.5,411.6,1254.9,3210.7,229.9,71.5
0.141605,442.5,93.6,1279.6,663.9,3241.2,188.0,411.3,1285.5,3208.7,230,71.2
0.143605,441.9,104.0,1291.0,833.5,3212.0,247.2,411.6,1319.6,3207,230.1,70.9
0.145605,438.7,114.2,1267.5,1135.4,3177.7,314.4,412.5,1357.1,3205.5,230.2,70.6
0.147605,435.5,123.1,1191.1,1565.8,3152.7,367.2,413.9,1398,3204.6,230.2,70.3
0.149605,434.6,128.3,1164.3,1867.3,3154.2,362.0,415.6,1442.2,3204.1,230.2,70
0.151605,436.6,131.4,1270.6,1824.7,3167.9,318.5,417.8,1489.4,3204.4,230.2,69.6
0.153605,440.5,134.7,1350.8,1718.7,3172.7,295.8,420.1,1539.5,3205.5,230.2,69.2
0.155605,445.4,138.2,1413.3,1790.9,3165.5,315.5,422.7,1592.2,3207.4,230.2,68.8
0.157605,450.0,137.6,1503.2,1991.9,3150.6,372.6,425.4,1647.3,3210.2,230.1,68.4
0.159605,452.5,131.4,1645.5,2163.9,3138.8,467.8,428.1,1704.4,3214.1,230.1,68
0.161605,451.3,125.0,1806.1,2195.1,3157.1,606.9,430.8,1763.3,3219,230,67.7
0.163605,447.6,120.8,1997.6,1998.7,3275.0,785.7,433.4,1823.6,3225.1,230,67.4
0.165605,443.5,117.8,2118.1,1550.4,3464.0,694.7,435.9,1884.9,3232.2,229.9,67.2
0.167605,439.5,114.7,2174.2,1168.8,3531.1,520.7,438.2,1946.9,3240.4,229.9,67
0.169605,436.3,110.1,2222.6,964.3,3539.7,483.9,440.2,2009.1,3249.8,229.8,66.9
0.171605,434.2,103.8,2255.8,922.4,3520.2,566.6,442,2071.2,3260.2,229.8,66.8
0.173605,432.5,98.8,2285.9,1029.6,3452.2,755.4,443.4,2132.7,3271.6,229.7,66.7
0.175605,431.0,99.1,2341.3,1304.2,3309.3,929.4,444.5,2193.1,3283.9,229.7,66.6
0.177605,429.3,104.6,2469.5,1824.8,3100.4,965.7,445.3,2252.2,3297.1,229.7,66.4
0.179605,427.5,111.2,2621.3,2288.2,2952.5,859.7,445.7,2309.3,3311,229.7,66.3
0.181605,424.9,118.0,2821.2,2212.6,2866.0,842.6,445.8,2364.2,3325.5,229.7,66.2
0.183605,420.8,126.1,2758.8,939.1,3083.9,1664.4,445.6,2416.3,3340.6,229.8,66.1
0.185605,415.6,135.3,2614.4,875.7,3315.2,1162.6,445,2465.4,3356,229.8,65.9
0.187605,412.4,140.3,2549.6,756.4,3426.7,887.7,444.1,2510.9,3371.6,229.9,65.8
0.189605,412.9,136.8,2526.2,628.0,3501.7,741.8,443,2552.6,3387.3,230,65.6
0.191605,415.7,125.6,2518.7,532.1,3558.6,678.6,441.7,2590.1,3402.9,230.2,65.5
0.193605,418.2,112.7,2511.8,486.0,3606.9,638.2,440.2,2623.1,3418.2,230.3,65.3
0.195605,419.5,104.2,2503.0,502.3,3624.0,607.3,438.6,2651.3,3433.1,230.5,65.2
0.197605,420.3,98.6,2490.8,571.7,3584.8,588.2,436.9,2674.5,3447.5,230.7,65.1
0.199605,421.2,94.4,2475.4,635.4,3513.9,549.3,435.1,2692.6,3461,230.9,65
0.201605,423.0,89.8,2455.6,655.7,3465.9,501.7,433.4,2705.3,3473.7,231.1,64.9
0.203605,425.4,85.4,2428.3,649.7,3447.0,514.8,431.8,2712.5,3485.4,231.4,64.8
0.205605,427.5,83.8,2401.4,644.2,3417.7,602.0,430.3,2714.2,3495.9,231.7,64.7
0.207605,428.0,86.9,2388.2,670.3,3346.4,685.4,429,2710.3,3505.1,232,64.6
0.209605,427.1,93.0,2382.2,735.0,3285.0,665.8,427.9,2700.9,3513,232.3,64.6
0.211605,426.8,99.2,2366.3,816.8,3262.5,591.4,427,2686,3519.4,232.7,64.6
0.213605,427.7,103.9,2338.9,888.0,3266.5,531.1,426.5,2665.7,3524.2,233.1,64.5
0.215605,429.7,107.0,2304.5,951.5,3282.7,504.5,426.3,2640.3,3527.5,233.5,64.5
0.217605,432.5,108.0,2283.1,1004.1,3313.3,523.9,426.5,2609.9,3529.1,233.9,64.5
0.219605,436.1,108.6,2310.0,1042.9,3388.0,590.3,427.1,2574.8,3529.2,234.4,64.4
0.221605,440.0,110.4,2402.8,1000.4,3507.1,615.3,428.1,2535.3,3527.6,234.9,64.4
0.223605,444.3,111.9,2501.4,876.3,3601.4,623.6,429.5,2491.8,3524.4,235.4,64.4
0.225605,449.2,111.0,2571.0,774.5,3672.4,683.4,431.3,2444.5,3519.7,235.9,64.4
0.227605,454.9,109.3,2615.9,679.1,3734.9,725.1,433.5,2393.9,3513.5,236.5,64.4
0.229605,460.4,109.7,2627.7,608.1,3760.4,706.0,436.1,2340.5,3506,237,64.4
0.231605,466.4,112.3,2617.1,574.7,3756.2,683.8,439.1,2284.8,3497.2,237.6,64.5
0.233605,472.5,113.0,2598.9,583.6,3728.2,732.8,442.4,2227.2,3487.3,238.2,64.6
0.235605,478.4,108.5,2573.6,651.0,3651.7,867.1,446,2168.2,3476.3,238.8,64.6
0.237605,482.1,101.0,2512.6,770.7,3536.2,918.3,449.8,2108.3,3464.6,239.5,64.7
0.239605,483.3,94.2,2406.4,820.7,3494.5,764.2,453.9,2048.2,3452.2,240.1,64.8
0.241605,482.9,89.4,2336.4,798.1,3523.8,583.8,458.1,1988.4,3439.2,240.8,64.9
0.243605,482.3,85.2,2303.7,814.4,3541.3,476.2,462.4,1929.3,3426,241.4,65
0.245605,482.2,79.5,2263.2,900.8,3532.1,448.4,466.8,1871.5,3412.6,242.1,65
0.247605,482.6,73.2,2173.8,997.9,3482.0,479.2,471.1,1815.6,3399.3,242.8,65.1
0.249605,482.9,67.8,2056.0,1019.2,3401.1,461.2,475.4,1762,3386.2,243.4,65.3
0.251605,482.8,66.3,1973.2,1024.5,3352.8,424.2,479.6,1711.3,3373.5,244.1,65.5
0.253605,482.3,69.5,1917.5,1104.8,3327.6,422.3,483.5,1663.9,3361.5,244.8,65.7
0.255605,481.6,75.5,1877.5,1298.4,3319.2,441.2,487.2,1620.2,3350.2,245.4,65.9
0.257605,480.3,81.7,1825.6,1730.4,3319.0,457.3,490.6,1580.7,3339.8,246.1,66.1
0.259605,478.1,85.2,1543.1,3590.5,3310.2,461.1,493.7,1545.7,3330.5,246.7,66.3
0.261605,474.8,85.2,857.9,1311.9,3123.6,2926.5,496.4,1515.5,3322.4,247.3,66.5
0.263605,471.9,81.3,923.7,892.1,3224.5,388.9,498.6,1490.4,3315.7,247.9,66.8
0.265605,470.3,74.9,974.6,609.8,3200.5,292.1,500.4,1470.6,3310.3,248.5,67.1
0.267605,470.8,68.1,1005.8,408.7,3207.3,210.9,501.7,1456.3,3306.4,249.1,67.4
0.269605,473.1,60.8,1023.3,257.3,3225.2,153.7,502.5,1447.7,3304,249.6,67.7
0.271605,476.8,53.7,1032.4,161.0,3237.4,124.1,502.7,1444.9,3303.2,250.1,68.1
