time,f1,b1,f2,b2,f3,b3,f1p,f2p,f3p,f0,intensity
0.025429,445.6,69.1,1030.7,402.1,2767.2,556.7,479,976.2,2811.3,162.3,69.7
0.027429,453.7,68.0,1037.1,423.6,2817.0,593.4,478.7,981.4,2814.2,162.3,70.4
0.029429,460.2,68.0,1042.8,447.3,2860.2,663.0,478.2,990,2819.1,162.3,70.9
0.031429,465.4,70.0,1048.8,472.5,2906.7,768.5,477.5,1001.7,2825.8,162.2,71.3
0.033429,469.8,73.2,1054.1,489.1,2939.5,876.4,476.7,1016.4,2834.1,162.2,71.6
0.035429,472.9,76.2,1055.9,487.7,2908.7,923.6,475.7,1033.6,2844,162.2,71.8
0.037429,474.4,79.3,1056.6,474.9,2838.2,850.3,474.7,1053.1,2855.3,162.2,71.9
0.039429,474.8,83.4,1058.8,459.6,2786.6,700.6,473.5,1074.5,2867.8,162.3,71.9
0.041429,474.8,88.1,1061.7,447.3,2765.1,544.2,472.3,1097.3,2881.3,162.3,71.9
0.043429,474.3,94.0,1065.2,442.4,2761.7,422.9,471.1,1121,2895.5,162.3,71.8
0.045429,473.9,102.5,1071.5,450.7,2771.5,371.7,469.9,1145.3,2910.3,162.3,71.7
0.047429,475.1,112.7,1085.0,472.6,2793.9,399.8,468.7,1169.5,2925.4,162.4,71.6
0.049429,478.8,125.6,1112.4,509.3,2837.9,507.7,467.6,1193.3,2940.5,162.4,71.5
0.051429,484.1,141.8,1155.4,555.1,2919.0,655.8,466.6,1216.3,2955.5,162.5,71.4
0.053429,490.4,159.9,1209.4,595.3,3023.2,738.6,465.7,1237.9,2970.2,162.5,71.3
0.055429,496.5,177.4,1264.5,617.7,3098.1,739.0,464.9,1257.9,2984.4,162.6,71.2
0.057429,501.1,194.0,1314.3,617.9,3152.7,725.4,464.3,1275.9,2997.9,162.7,71.1
0.059429,502.0,204.4,1343.0,592.8,3196.3,719.1,463.9,1291.7,3010.6,162.8,71.1
0.061429,498.2,206.0,1348.1,548.2,3217.4,721.1,463.6,1305,3022.4,163,71.1
0.063429,489.0,198.3,1336.2,492.1,3205.2,734.4,463.5,1315.8,3033.3,163.1,71.1
0.065429,477.3,181.8,1317.4,430.5,3163.3,739.1,463.6,1323.8,3043,163.3,71.1
0.067429,464.5,157.7,1300.0,361.5,3093.7,691.2,463.8,1329.2,3051.7,163.4,71.1
0.069429,453.7,135.7,1293.2,304.1,3029.8,571.3,464.1,1331.8,3059.3,163.6,71.1
0.071429,446.3,121.3,1295.6,271.4,2998.5,452.0,464.6,1331.9,3065.9,163.8,71.2
0.073429,442.5,112.3,1300.7,259.1,2987.3,377.4,465.1,1329.6,3071.4,164,71.3
0.075429,440.7,106.1,1304.8,259.2,2983.6,345.2,465.7,1325,3076.1,164.2,71.4
0.077429,439.9,101.5,1307.1,268.4,2984.3,343.6,466.3,1318.4,3079.8,164.4,71.6
0.079429,440.0,99.2,1309.2,289.4,2992.4,366.5,466.8,1310.1,3082.8,164.7,71.7
0.081429,440.5,98.6,1312.9,325.8,3005.8,405.1,467.4,1300.3,3085.1,164.9,71.9
0.083429,441.8,97.5,1316.5,375.0,3010.6,440.8,467.8,1289.2,3086.8,165.1,72.1
0.085429,444.4,94.9,1320.0,446.1,2997.3,456.6,468.1,1277.3,3088,165.4,72.3
0.087429,447.8,91.8,1325.1,554.4,2980.7,452.6,468.3,1264.7,3088.8,165.7,72.4
0.089429,451.9,89.5,1329.5,720.1,2986.2,464.3,468.3,1251.8,3089.4,165.9,72.6
0.091429,456.6,89.3,1321.1,965.9,3033.0,528.9,468.1,1238.8,3089.6,166.2,72.7
0.093429,462.2,91.0,1293.5,1317.4,3106.5,602.7,467.6,1225.8,3089.7,166.5,72.8
0.095429,469.0,93.1,1239.9,1883.6,3161.3,649.3,467,1213,3089.5,166.7,72.8
0.097429,474.9,94.4,1151.9,2537.7,3179.0,717.1,466,1200.7,3089.3,167,72.9
0.099429,477.3,95.7,1146.2,2517.4,3166.8,724.4,464.9,1188.8,3088.9,167.3,72.9
0.101429,476.1,96.0,1191.4,1883.0,3150.3,658.4,463.4,1177.5,3088.2,167.6,72.8
0.103429,472.6,92.6,1185.6,1334.3,3141.5,627.5,461.8,1166.6,3087.4,167.8,72.7
0.105429,468.7,85.6,1162.5,979.1,3174.1,656.8,459.8,1156.3,3086.3,168.1,72.6
0.107429,466.4,78.9,1147.1,807.6,3224.2,545.9,457.7,1146.4,3084.9,168.4,72.4
0.109429,465.4,74.0,1137.7,723.1,3176.2,476.3,455.4,1136.7,3083,168.6,72.2
0.111429,464.1,70.4,1120.3,653.6,3111.6,450.4,452.9,1127.3,3080.6,168.9,72
0.113429,461.9,67.7,1095.5,589.6,3061.3,466.0,450.2,1117.9,3077.6,169.1,71.7
0.115429,459.5,67.2,1071.8,544.6,3019.2,550.7,447.4,1108.3,3073.9,169.4,71.4
0.117429,457.5,70.8,1055.9,536.4,2980.6,645.1,444.6,1098.4,3069.5,169.6,71.1
0.119429,455.7,77.6,1042.7,551.8,2984.7,682.4,441.7,1088,3064.2,169.8,70.8
0.121429,453.7,85.0,1026.4,564.2,3033.2,651.8,438.7,1077.1,3058.1,170.1,70.5
0.123429,450.6,92.4,1004.0,559.8,3079.8,538.2,435.8,1065.3,3051,170.3,70.2
0.125429,446.8,100.6,984.1,551.2,3088.1,406.6,432.9,1052.8,3042.9,170.5,69.9
0.127429,443.2,112.6,976.9,570.8,3068.5,306.9,430.1,1039.3,3034,170.7,69.6
0.129429,440.1,128.5,982.1,617.7,3035.7,249.0,427.3,1024.8,3024.1,170.8,69.3
0.131429,435.8,142.6,988.3,650.1,3003.3,225.9,424.7,1009.5,3013.4,171,69
0.133429,428.5,152.6,986.9,642.4,2976.1,223.3,422.1,993.3,3002,171.1,68.8
0.135429,417.9,156.5,977.8,589.5,2954.6,235.8,419.7,976.3,2989.9,171.3,68.6
0.137429,405.8,154.3,967.0,515.8,2931.5,257.3,417.4,958.8,2977.4,171.4,68.4
0.139429,395.5,150.4,958.3,458.5,2906.6,277.4,415.3,940.9,2964.6,171.5,68.2
0.141429,388.2,149.2,953.4,431.6,2890.4,297.8,413.2,922.9,2951.7,171.6,68
0.143429,383.2,149.6,952.7,423.4,2887.5,329.0,411.3,905,2939,171.6,67.8
0.145429,380.0,149.1,954.0,421.6,2896.5,366.8,409.4,887.5,2926.5,171.7,67.6
0.147429,378.0,145.8,952.3,417.7,2905.6,403.5,407.7,870.9,2914.7,171.8,67.3
0.149429,377.2,140.5,945.5,416.4,2905.1,435.3,406,855.4,2903.6,171.8,67.1
0.151429,377.9,137.5,934.5,434.0,2901.8,457.9,404.3,841.3,2893.7,171.8,66.9
0.153429,380.4,139.6,918.4,486.1,2907.3,473.9,402.6,829.1,2885,171.8,66.7
0.155429,385.2,146.0,899.1,569.3,2919.4,487.7,401,819.1,2877.7,171.8,66.5
0.157429,391.0,153.0,882.7,656.9,2923.8,503.9,399.3,811.4,2872.2,171.8,66.4
0.159429,395.5,158.4,869.1,726.2,2913.9,519.3,397.5,806.5,2868.5,171.8,66.3
0.161429,399.3,165.3,843.8,793.4,2890.9,533.7,395.7,804.5,2866.7,171.7,66.2
0.163429,404.6,175.3,795.8,886.3,2866.5,555.5,393.8,805.5,2867,171.7,66.2
0.165429,414.2,184.2,724.7,1048.0,2858.0,609.5,391.7,809.7,2869.4,171.7,66.1
0.167429,424.7,184.6,636.9,1298.7,2888.4,719.6,389.6,817.1,2873.9,171.6,66.1
0.169429,427.0,184.2,600.1,1468.5,2973.0,786.0,387.4,827.7,2880.4,171.5,66.1
0.171429,415.9,190.6,717.7,1253.2,2989.0,721.4,385,841.3,2889,171.5,66.1
0.173429,398.5,190.8,829.8,924.8,2955.7,675.9,382.6,857.8,2899.4,171.4,66.1
0.175429,385.6,181.1,893.1,710.0,2915.1,662.3,380,876.9,2911.5,171.3,66.1
0.177429,378.4,168.3,930.2,592.8,2878.9,660.2,377.4,898.4,2925.1,171.2,66.1
0.179429,374.6,160.3,950.6,549.7,2861.5,676.3,374.7,921.7,2940,171.1,66.1
0.181429,372.7,160.5,958.1,564.8,2857.3,706.8,372.1,946.7,2955.8,171,66.1
0.183429,374.8,171.0,957.2,648.3,2893.0,702.4,369.4,972.6,2972.3,171,66.1
0.185429,380.9,185.8,964.5,786.6,2969.6,632.7,366.7,999.2,2989.1,170.9,66.2
0.187429,383.7,192.2,993.8,871.0,3024.3,550.9,364.1,1025.7,3006,170.7,66.3
0.189429,379.1,188.7,1035.2,822.7,3047.8,491.9,361.7,1051.8,3022.5,170.6,66.3
0.191429,369.8,181.2,1064.9,701.0,3049.8,473.8,359.3,1076.9,3038.4,170.5,66.4
0.193429,359.7,174.7,1083.7,594.2,3032.9,512.7,357.2,1100.4,3053.3,170.4,66.4
0.195429,351.6,171.4,1101.6,539.0,2993.4,603.1,355.2,1121.9,3066.9,170.3,66.5
0.197429,345.7,169.3,1125.1,524.1,2970.5,664.8,353.5,1140.9,3078.9,170.2,66.5
0.199429,340.7,163.9,1158.3,520.2,3021.2,609.3,352.1,1157.1,3089.2,170.1,66.5
0.201429,336.3,155.7,1192.9,520.7,3096.6,468.3,350.9,1170,3097.3,170,66.5
0.203429,332.1,148.4,1223.6,544.9,3164.5,374.5,350.1,1179.5,3103.3,169.9,66.4
0.205429,327.7,144.3,1255.4,617.4,3213.0,346.7,349.6,1185.2,3106.9,169.8,66.4
0.207429,323.6,144.4,1293.5,739.4,3220.8,374.7,349.4,1187.1,3108.2,169.7,66.4
