time,f1,b1,f2,b2,f3,b3,f1p,f2p,f3p,f0,intensity
0.025220,421.4,45.2,2051.7,170.7,2785.1,629.7,410.1,2137.2,2708.1,204.1,75.3
0.027220,413.5,38.5,2077.8,176.4,2746.8,474.8,409.6,2146.8,2714.4,204,75.5
0.029220,407.1,34.1,2106.0,184.5,2739.6,346.7,408.7,2162.5,2724.7,203.9,75.6
0.031220,402.8,31.3,2149.0,195.7,2747.8,266.8,407.5,2183.9,2738.8,203.9,75.8
0.033220,400.7,29.9,2202.8,201.3,2766.4,222.5,405.9,2210.6,2756.6,203.8,76
0.035220,400.0,29.7,2251.1,201.6,2787.4,194.3,404.1,2241.8,2777.7,203.7,76.1
0.037220,399.5,30.9,2291.8,207.6,2804.5,173.8,402,2276.8,2801.7,203.6,76.1
0.039220,398.4,32.8,2324.9,221.7,2815.5,161.6,399.6,2314.9,2828.3,203.5,76.1
0.041220,396.5,34.4,2358.6,245.3,2825.6,156.8,397.1,2355,2857,203.4,76.1
0.043220,394.3,34.9,2401.1,284.3,2838.4,166.7,394.4,2396.4,2887.4,203.3,76
0.045220,392.4,35.1,2466.7,337.9,2855.4,204.8,391.6,2438.1,2919.2,203.2,75.9
0.047220,390.2,35.9,2570.5,361.8,2878.8,297.8,388.6,2479.2,2951.7,203,75.8
0.049220,387.2,37.3,2652.0,287.9,2930.2,434.6,385.7,2519,2984.8,202.9,75.8
0.051220,383.2,38.9,2678.7,218.8,3012.2,495.8,382.7,2556.6,3017.9,202.8,75.8
0.053220,379.4,39.7,2685.0,190.9,3070.6,474.3,379.7,2591.4,3050.9,202.6,75.8
0.055220,376.3,39.2,2683.8,189.0,3100.8,424.1,376.8,2622.8,3083.3,202.5,75.9
0.057220,373.7,38.0,2679.7,211.8,3112.3,387.9,373.9,2650.5,3115.1,202.3,75.9
0.059220,371.5,37.3,2678.0,249.6,3126.3,380.5,371.2,2674.1,3145.9,202.2,75.9
0.061220,369.5,38.0,2681.2,288.7,3161.6,393.5,368.5,2693.6,3175.7,202,75.9
0.063220,367.7,40.0,2681.5,316.9,3215.9,398.1,366,2708.7,3204.5,201.9,75.8
0.065220,365.3,42.7,2666.8,341.4,3271.1,376.1,363.7,2719.8,3232.1,201.7,75.7
0.067220,362.4,45.7,2639.5,351.9,3309.5,346.5,361.5,2726.9,3258.5,201.6,75.6
0.069220,359.5,48.6,2619.2,335.3,3333.9,326.7,359.4,2730.4,3283.9,201.4,75.5
0.071220,356.7,51.5,2616.3,298.6,3350.3,315.4,357.5,2730.7,3308.1,201.2,75.4
0.073220,354.5,53.9,2628.7,260.9,3360.1,308.2,355.7,2728.3,3331.4,201.1,75.3
0.075220,352.6,55.8,2649.9,230.0,3368.5,298.8,354.1,2723.7,3353.7,200.9,75.1
0.077220,351.2,57.0,2671.8,212.3,3378.9,287.3,352.6,2717.5,3375.1,200.8,75
0.079220,350.0,57.6,2691.4,207.2,3392.9,277.6,351.1,2710.2,3395.6,200.7,74.9
0.081220,348.7,57.5,2703.2,211.5,3408.2,275.6,349.8,2702.4,3415.3,200.5,74.8
0.083220,347.3,57.3,2708.1,213.9,3422.9,279.8,348.5,2694.6,3434.1,200.4,74.7
0.085220,346.1,57.6,2713.1,207.0,3438.6,284.7,347.3,2687.3,3451.9,200.3,74.6
0.087220,345.6,58.5,2720.4,194.5,3453.6,284.4,346.2,2680.8,3468.7,200.2,74.4
0.089220,345.6,59.9,2727.3,182.3,3467.8,279.6,345,2675.6,3484.4,200.1,74.3
0.091220,345.6,61.4,2730.0,174.9,3479.0,278.8,343.9,2671.9,3498.8,200,74.2
0.093220,345.4,62.7,2728.9,172.3,3489.8,288.1,342.7,2669.8,3511.8,199.9,74
0.095220,344.5,63.9,2726.0,175.3,3502.3,303.5,341.6,2669.5,3523.2,199.8,73.9
0.097220,343.0,65.4,2723.0,183.9,3517.0,312.8,340.5,2670.8,3532.7,199.7,73.8
0.099220,341.1,67.6,2720.2,197.0,3533.0,307.5,339.3,2673.9,3540.2,199.6,73.7
0.101220,339.2,69.8,2718.9,209.9,3545.3,290.4,338.2,2678.4,3545.5,199.6,73.6
0.103220,337.3,71.3,2719.8,219.1,3552.1,269.7,337,2684.2,3548.4,199.5,73.5
0.105220,335.3,72.0,2721.2,221.8,3550.4,250.9,335.9,2691,3548.7,199.4,73.5
0.107220,333.4,72.1,2720.4,219.6,3541.4,234.7,334.9,2698.5,3546.4,199.4,73.4
0.109220,331.5,71.9,2714.8,216.6,3529.1,221.5,333.9,2706.5,3541.3,199.3,73.3
0.111220,330.0,71.6,2704.4,216.6,3520.4,218.0,332.9,2714.4,3533.3,199.3,73.2
0.113220,328.8,70.6,2691.8,219.5,3516.4,229.3,332.1,2722.1,3522.6,199.2,73.2
0.115220,328.4,69.2,2684.0,222.2,3513.2,255.7,331.5,2729.2,3509.1,199.1,73.1
0.117220,328.8,67.5,2682.6,223.9,3503.9,296.0,330.9,2735.4,3492.9,199,73
0.119220,329.6,66.2,2684.5,226.1,3485.7,340.1,330.6,2740.4,3474.3,199,73
0.121220,330.5,65.4,2686.5,230.4,3463.6,378.7,330.5,2744.1,3453.4,198.9,72.9
0.123220,331.4,65.3,2688.9,238.8,3442.1,419.1,330.6,2746.2,3430.5,198.7,72.8
0.125220,332.2,65.7,2693.2,250.8,3426.3,464.1,331,2746.8,3405.8,198.6,72.7
0.127220,333.4,66.4,2700.1,267.4,3412.1,515.4,331.6,2745.6,3379.8,198.5,72.7
0.129220,334.8,66.9,2707.8,289.0,3391.5,558.9,332.4,2742.7,3352.8,198.3,72.6
0.131220,336.5,66.9,2715.3,316.5,3354.4,583.2,333.6,2738.2,3325,198.1,72.5
0.133220,338.5,66.6,2719.8,336.4,3310.0,577.7,335,2732.2,3296.9,197.9,72.4
0.135220,340.5,65.8,2719.9,333.5,3274.7,560.9,336.6,2724.7,3268.9,197.7,72.4
0.137220,342.2,64.4,2717.9,310.0,3244.5,552.7,338.5,2716,3241.2,197.5,72.2
0.139220,343.1,63.3,2717.6,283.8,3213.9,555.6,340.6,2706.2,3214.1,197.2,72.1
0.141220,343.5,62.9,2720.5,266.8,3176.6,564.7,342.9,2695.6,3188.1,196.9,71.9
0.143220,344.0,63.6,2724.9,260.6,3139.5,572.7,345.3,2684.3,3163.2,196.6,71.6
0.145220,344.7,66.0,2727.6,253.8,3115.9,574.6,347.9,2672.7,3139.8,196.3,71.3
0.147220,345.7,70.8,2728.2,244.1,3103.1,576.5,350.5,2661,3117.9,196,70.8
0.149220,347.0,77.7,2727.3,248.6,3084.9,576.2,353.2,2649.2,3097.8,195.6,70.3
0.151220,349.3,86.5,2724.1,293.4,3046.5,555.7,355.8,2637.8,3079.5,195.3,69.8
0.153220,353.1,95.3,2710.4,390.6,3007.4,495.0,358.4,2626.9,3063,194.9,69.1
0.155220,358.4,103.9,2674.5,501.0,2998.2,422.4,360.9,2616.6,3048.4,194.5,68.5
0.157220,364.1,111.9,2646.8,565.1,3003.9,391.0,363.2,2607.2,3035.6,194.1,67.8
0.159220,369.0,118.6,2637.0,610.6,2998.9,377.3,365.3,2598.8,3024.7,193.7,67
0.161220,372.6,123.1,2621.3,680.8,2980.4,356.8,367.1,2591.4,3015.6,193.3,66.2
0.163220,374.2,125.3,2585.4,764.3,2969.7,347.5,368.7,2585.3,3008.3,193,65.3
0.165220,374.1,128.0,2530.7,842.5,2978.5,384.2,369.9,2580.4,3002.6,192.6,64.3
0.167220,372.6,136.6,2472.2,861.5,3015.1,466.3,370.8,2576.9,2998.6,192.2,63.2
0.169220,370.5,157.7,2452.8,808.0,3083.5,559.8,371.4,2574.8,2996.2,191.9,62.1
0.171220,366.5,197.6,2471.2,714.1,3157.0,643.7,371.6,2574.1,2995.4,191.6,60.9
