time,f1,b1,f2,b2,f3,b3,f1p,f2p,f3p,f0,intensity
0.025594,219.0,52.7,1742.0,113.9,2444.5,208.4,219.7,1734.6,2498.9,196.9,74.8
0.027594,221.9,39.8,1724.5,127.1,2456.3,246.1,219.7,1721.8,2510.9,197,75.1
0.029594,222.1,32.0,1702.6,161.4,2492.4,336.4,219.8,1701,2530,197,75.2
0.031594,220.7,29.6,1683.1,219.9,2589.1,472.4,219.8,1673,2555.3,197.1,75.4
0.033594,219.4,30.6,1667.2,311.8,2723.9,494.0,219.9,1638.7,2585.2,197.1,75.5
0.035594,218.9,32.0,1639.8,472.3,2734.6,508.6,220,1599.3,2617.9,197.1,75.6
0.037594,219.0,33.4,1568.4,700.8,2671.6,550.6,220.2,1556.3,2651.8,197.1,75.6
0.039594,219.4,34.7,1475.6,842.9,2623.9,573.9,220.4,1511.1,2684.8,197.1,75.6
0.041594,219.9,36.9,1413.1,920.7,2632.4,626.9,220.6,1465.2,2715.3,197,75.6
0.043594,220.5,40.1,1384.8,965.5,2713.7,606.8,220.8,1420,2741.6,197,75.5
0.045594,220.8,43.3,1351.4,941.4,2773.8,416.1,221.2,1376.9,2762.6,196.9,75.4
0.047594,221.0,45.1,1308.3,868.7,2787.1,277.4,221.6,1337.3,2777.5,196.8,75.3
0.049594,221.4,46.8,1286.5,786.1,2789.8,205.2,222,1302,2785.7,196.7,75.1
0.051594,222.2,49.3,1286.9,689.5,2782.8,173.3,222.6,1271.9,2787.5,196.5,74.9
0.053594,223.0,52.1,1282.3,600.9,2765.4,164.2,223.3,1247.5,2783.2,196.3,74.6
0.055594,223.6,54.3,1263.7,543.7,2740.3,166.7,224.1,1229.1,2773.7,196.2,74.4
0.057594,224.2,55.3,1236.3,537.5,2716.6,181.6,225.1,1216.6,2760.3,195.9,74.2
0.059594,225.5,56.9,1207.2,592.4,2698.6,214.7,226.2,1209.8,2744.4,195.7,74
0.061594,227.5,61.3,1192.3,721.2,2694.9,270.5,227.5,1208.1,2727.6,195.5,73.8
0.063594,230.4,69.7,1197.9,927.6,2712.2,362.9,229,1210.8,2711.4,195.2,73.6
0.065594,233.4,79.7,1214.8,1110.9,2751.1,457.2,230.7,1216.9,2697.5,194.9,73.4
0.067594,236.1,88.6,1222.5,1153.0,2790.7,501.1,232.6,1225.3,2687.1,194.6,73.2
0.069594,237.7,90.4,1226.8,1048.9,2799.1,506.5,234.6,1235.1,2681.2,194.3,73.1
0.071594,238.5,85.1,1255.7,902.2,2778.7,538.1,236.9,1244.9,2680.4,194,72.9
0.073594,239.1,77.6,1286.5,784.3,2734.1,637.6,239.4,1253.9,2685.1,193.6,72.7
0.075594,240.0,72.3,1300.1,724.8,2659.7,854.9,242,1261.1,2695.1,193.2,72.6
0.077594,242.5,73.8,1312.1,743.8,2590.6,1175.4,244.9,1265.6,2709.8,192.9,72.5
0.079594,246.8,81.8,1327.3,784.4,2637.1,1623.8,247.9,1266.9,2728.4,192.5,72.3
0.081594,250.8,88.5,1281.8,735.7,2764.5,1742.6,251,1264.5,2749.6,192.1,72.2
0.083594,253.5,88.7,1198.5,578.9,2735.9,1355.2,254.2,1258.5,2772.1,191.7,72
0.085594,255.7,85.3,1160.5,438.5,2694.7,1139.9,257.5,1248.8,2794.4,191.3,71.9
0.087594,258.7,83.0,1156.9,349.6,2705.4,1110.0,260.9,1235.8,2815.1,190.9,71.8
0.089594,262.4,81.7,1164.5,283.7,2810.9,1121.0,264.2,1220.2,2832.9,190.5,71.7
0.091594,266.1,79.1,1167.2,231.6,2943.1,928.7,267.6,1202.7,2846.5,190,71.5
0.093594,270.1,75.0,1165.4,193.9,2960.2,693.0,270.9,1184.3,2855.3,189.6,71.4
0.095594,274.2,72.8,1166.1,177.9,2928.5,588.5,274.1,1165.9,2858.7,189.1,71.3
0.097594,278.7,72.8,1171.4,175.8,2879.8,537.6,277.2,1148.9,2856.6,188.7,71.2
0.099594,282.8,73.5,1177.7,177.5,2835.7,486.0,280.2,1134.2,2849.4,188.3,71.1
0.101594,286.2,73.2,1180.3,176.5,2808.1,418.6,283,1122.9,2837.8,187.8,71.1
0.103594,288.3,70.3,1174.8,174.1,2800.6,369.6,285.6,1116.1,2822.6,187.4,71
0.105594,289.4,64.4,1161.2,175.4,2803.8,358.9,288,1114.5,2805.2,186.9,71
0.107594,290.5,58.4,1147.2,187.1,2805.6,388.5,290.2,1118.8,2786.9,186.4,70.9
0.109594,292.1,54.6,1140.9,218.5,2798.8,431.6,292.1,1129.4,2769.2,186,70.9
0.111594,293.8,53.9,1147.3,272.5,2788.0,453.1,293.9,1146.4,2753.5,185.5,70.9
0.113594,295.2,55.4,1165.6,358.5,2767.3,449.3,295.4,1169.7,2740.9,185,71
0.115594,296.4,58.6,1191.3,468.9,2736.4,419.8,296.8,1198.9,2732.6,184.6,71
0.117594,297.8,61.6,1228.7,578.5,2710.2,373.0,297.9,1233.4,2729.1,184.1,71.1
0.119594,298.4,61.8,1272.4,584.9,2700.9,326.1,298.8,1272.3,2730.8,183.7,71.2
0.121594,298.3,60.2,1308.6,495.3,2703.6,282.8,299.6,1314.5,2737.7,183.2,71.2
0.123594,298.1,59.3,1333.9,400.3,2714.1,250.2,300.2,1358.7,2749.2,182.7,71.3
0.125594,298.1,59.0,1347.4,348.3,2728.7,247.0,300.6,1403.5,2764.7,182.3,71.3
0.127594,298.2,59.0,1358.3,342.7,2749.3,291.5,301,1447.6,2783,181.9,71.4
0.129594,298.8,60.6,1385.6,383.9,2773.8,392.4,301.2,1489.3,2802.9,181.4,71.4
0.131594,300.0,63.0,1461.4,438.0,2808.0,540.7,301.4,1527.5,2822.9,181,71.4
0.133594,301.6,63.3,1562.7,402.7,2860.4,618.9,301.5,1560.6,2841.7,180.6,71.3
0.135594,303.0,61.7,1632.8,284.2,2892.6,558.5,301.6,1587.7,2858,180.2,71.3
0.137594,304.0,60.4,1665.2,189.3,2883.3,510.2,301.6,1607.8,2870.4,179.8,71.2
0.139594,304.2,58.8,1686.7,136.5,2885.5,558.5,301.7,1620.1,2878.3,179.5,71
0.141594,304.1,56.9,1706.3,116.6,2936.3,679.8,301.7,1624.2,2881,179.1,70.9
