time,f1,b1,f2,b2,f3,b3,f1p,f2p,f3p,f0,intensity
0.025705,479.4,41.6,1683.3,36.6,2665.3,211.9,474.6,1829.3,2645.3,0,67.8
0.027705,483.2,44.4,1699.2,41.0,2669.1,230.7,474.4,1830.9,2645.3,0,67.9
0.029705,486.9,48.8,1719.9,51.7,2672.8,268.9,474,1833.6,2645.2,0,67.9
0.031705,487.1,50.3,1748.3,64.2,2678.5,318.1,473.5,1837.4,2645.2,0,67.9
0.033705,482.1,46.5,1777.5,69.8,2681.6,345.1,472.9,1842.1,2645.1,0,67.8
0.035705,472.5,39.7,1800.2,71.3,2667.6,337.1,472.2,1847.9,2644.9,0,67.7
0.037705,462.5,32.6,1821.0,78.5,2638.7,329.5,471.3,1854.6,2644.8,153.5,67.5
0.039705,456.7,27.3,1848.8,92.9,2614.2,339.8,470.3,1862.2,2644.6,153.6,67.4
0.041705,455.3,24.5,1886.3,105.1,2610.5,346.1,469.2,1870.7,2644.4,153.6,67.4
0.043705,456.4,23.8,1922.8,103.7,2625.9,315.0,468,1880,2644.2,153.6,67.4
0.045705,458.6,24.3,1945.0,95.5,2640.2,254.9,466.6,1890,2643.9,153.7,67.5
0.047705,461.5,25.8,1956.5,94.3,2645.7,207.2,465.2,1900.7,2643.6,153.7,67.7
0.049705,464.6,28.3,1971.5,102.0,2647.4,192.0,463.6,1912,2643.3,153.6,67.9
0.051705,467.5,30.9,1996.8,107.2,2648.1,203.3,462,1923.9,2642.9,153.6,68.1
0.053705,469.2,32.7,2023.2,100.4,2645.7,224.5,460.3,1936.3,2642.4,153.5,68.3
0.055705,468.3,33.8,2040.7,90.4,2634.6,242.2,458.5,1949,2641.9,153.5,68.4
0.057705,465.6,35.1,2052.8,85.0,2614.3,254.5,456.6,1962,2641.4,153.4,68.5
0.059705,461.7,36.7,2066.1,83.6,2590.2,273.2,454.6,1975.3,2640.7,153.2,68.5
0.061705,456.1,39.1,2081.4,82.9,2568.8,313.5,452.6,1988.8,2640.1,153.1,68.5
0.063705,448.1,42.2,2091.3,80.7,2564.3,367.7,450.5,2002.3,2639.3,152.9,68.5
0.065705,439.7,46.2,2089.9,76.3,2589.9,384.8,448.4,2015.8,2638.5,152.7,68.4
0.067705,431.8,51.7,2082.1,71.0,2625.1,347.7,446.2,2029.2,2637.6,152.4,68.4
0.069705,424.1,59.5,2077.3,67.8,2648.4,313.9,444,2042.4,2636.6,152.2,68.3
0.071705,418.3,69.0,2076.5,71.0,2666.7,313.1,441.8,2055.5,2635.6,151.9,68.3
0.073705,417.7,79.2,2075.3,83.0,2688.1,335.3,439.5,2068.2,2634.4,151.6,68.3
0.075705,423.1,84.8,2071.1,101.7,2705.4,343.0,437.2,2080.6,2633.2,151.2,68.4
0.077705,431.4,81.6,2068.2,119.3,2697.8,305.1,435,2092.5,2631.8,150.9,68.7
0.079705,439.3,74.8,2080.3,125.4,2670.4,237.0,432.7,2103.9,2630.4,150.5,68.9
0.081705,447.0,68.7,2109.7,112.2,2647.8,174.1,430.4,2114.8,2628.9,150.1,69.2
0.083705,454.1,61.9,2136.3,90.0,2636.7,134.0,428.2,2125.1,2627.3,149.7,69.2
0.085705,457.0,56.8,2146.4,76.4,2629.9,120.5,426,2134.8,2625.6,149.2,69.2
0.087705,453.0,58.8,2143.1,75.5,2620.4,134.9,423.8,2143.8,2623.8,148.8,68.9
0.089705,440.7,68.1,2137.1,84.4,2604.5,175.6,421.6,2152.1,2621.8,148.4,68.5
0.091705,421.4,78.7,2134.0,99.6,2586.4,222.6,419.5,2159.7,2619.8,147.9,68.1
0.093705,402.9,85.4,2129.3,117.3,2574.3,245.3,417.4,2166.6,2617.8,147.5,67.6
0.095705,393.3,90.8,2117.3,133.3,2568.7,232.7,415.3,2172.7,2615.6,147.1,67.2
0.097705,393.6,97.1,2103.1,145.5,2568.2,198.9,413.3,2178.1,2613.3,146.7,66.9
0.099705,399.2,102.4,2100.7,159.5,2573.2,164.0,411.4,2182.7,2611,146.3,66.6
0.101705,402.9,105.4,2117.6,176.7,2584.3,140.1,409.5,2186.6,2608.6,145.9,66.4
0.103705,401.7,105.9,2142.8,186.9,2599.9,127.9,407.7,2189.7,2606.1,145.5,66.2
0.105705,400.2,104.3,2158.2,193.0,2616.1,122.7,406,2192.1,2603.5,145.2,66.2
0.107705,402.8,101.7,2156.5,210.1,2630.6,126.0,404.3,2193.9,2600.9,144.9,66.1
0.109705,408.0,98.2,2137.6,242.2,2644.8,139.0,402.7,2195,2598.3,144.6,66.1
0.111705,412.5,94.5,2110.2,273.8,2660.2,162.2,401.2,2195.5,2595.6,144.3,66.1
0.113705,413.6,92.0,2101.6,289.3,2670.7,211.7,399.7,2195.4,2592.9,144,66.1
0.115705,409.3,91.4,2135.7,291.4,2664.7,324.1,398.4,2194.8,2590.2,143.8,66.1
0.117705,403.2,91.9,2190.0,269.9,2647.7,499.0,397.1,2193.7,2587.5,143.6,66.1
0.119705,400.5,94.0,2221.1,243.3,2625.0,630.7,395.9,2192.2,2584.8,143.4,66.1
0.121705,398.3,96.5,2227.8,258.5,2579.4,647.2,394.7,2190.3,2582.1,143.3,66.1
0.123705,392.4,96.9,2222.1,336.0,2515.4,584.6,393.7,2188.1,2579.4,143.1,66.1
0.125705,385.4,95.6,2197.6,490.2,2460.7,442.4,392.7,2185.6,2576.8,143,66.1
0.127705,382.7,95.5,2150.5,613.8,2450.1,300.5,391.9,2183,2574.3,142.9,66
0.129705,384.6,98.2,2148.8,615.8,2454.4,235.2,391.1,2180.1,2571.8,142.8,66
0.131705,387.4,100.7,2206.0,523.2,2468.3,255.7,390.4,2177.2,2569.5,142.7,65.9
0.133705,388.4,101.0,2256.6,342.6,2529.6,362.8,389.7,2174.3,2567.2,142.7,65.9
0.135705,388.6,102.4,2246.0,221.4,2628.7,376.6,389.2,2171.4,2565,142.7,65.9
0.137705,388.7,107.4,2228.2,164.6,2680.6,361.8,388.8,2168.6,2563,142.6,65.9
0.139705,388.3,112.9,2221.9,141.6,2683.3,379.7,388.4,2165.9,2561,142.6,66
0.141705,386.9,115.9,2228.4,147.0,2633.5,394.2,388.1,2163.4,2559.3,142.6,66
0.143705,386.0,116.8,2236.7,168.4,2570.8,364.3,387.9,2161.1,2557.7,142.6,66
0.145705,386.8,116.6,2239.8,187.6,2536.6,320.6,387.8,2159.1,2556.2,142.6,65.9
0.147705,389.6,116.3,2240.8,200.6,2531.9,304.4,387.7,2157.4,2554.9,142.6,65.8
0.149705,393.1,115.7,2241.1,221.4,2549.1,331.0,387.8,2156.1,2553.8,142.6,65.7
0.151705,395.4,114.4,2229.3,261.7,2585.9,374.2,387.9,2155.1,2552.9,142.7,65.5
0.153705,396.6,113.3,2185.7,309.2,2624.5,364.9,388.1,2154.5,2552.1,142.7,65.4
0.155705,397.1,113.5,2132.0,322.6,2631.1,316.1,388.4,2154.4,2551.5,142.7,65.2
0.157705,395.6,114.9,2106.4,310.8,2596.8,273.0,388.8,2154.7,2551.2,142.8,65.1
0.159705,393.0,118.7,2099.1,286.5,2552.5,228.1,389.2,2155.4,2551,142.8,65.1
0.161705,391.3,124.2,2103.2,252.1,2523.5,189.6,389.8,2156.6,2550.9,142.9,65.1
0.163705,390.7,128.8,2117.5,215.1,2512.4,165.7,390.4,2158.2,2551.1,142.9,65.2
0.165705,389.8,130.5,2134.1,187.3,2512.5,156.7,391.1,2160.3,2551.4,143,65.3
0.167705,389.2,130.4,2146.4,178.4,2515.1,162.7,391.8,2162.8,2551.9,143,65.4
0.169705,389.8,129.2,2152.0,195.3,2513.6,186.1,392.7,2165.7,2552.6,143.1,65.5
0.171705,389.8,123.9,2149.3,250.6,2502.7,228.5,393.6,2169,2553.4,143.1,65.6
0.173705,388.3,114.1,2136.5,343.2,2485.1,269.9,394.6,2172.6,2554.3,143.2,65.6
0.175705,386.8,105.5,2121.2,409.4,2484.5,291.8,395.6,2176.6,2555.3,143.3,65.6
0.177705,385.9,101.1,2123.1,402.0,2504.4,310.5,396.8,2180.9,2556.5,143.3,65.6
0.179705,385.5,99.2,2135.5,367.3,2521.2,332.4,398,2185.4,2557.7,143.4,65.6
0.181705,386.2,98.4,2150.0,347.8,2518.3,369.6,399.3,2190.2,2559,143.4,65.6
0.183705,388.4,98.1,2172.2,339.1,2497.0,446.1,400.7,2195.1,2560.3,143.5,65.6
0.185705,390.9,98.1,2204.6,297.7,2484.2,610.9,402.1,2200.2,2561.7,143.5,65.6
0.187705,392.7,99.0,2217.4,228.7,2546.0,815.7,403.6,2205.3,2563.1,143.5,65.6
0.189705,395.4,102.5,2219.4,192.3,2642.1,851.4,405.2,2210.5,2564.5,143.6,65.5
0.191705,400.4,108.1,2225.2,180.4,2671.4,784.4,406.8,2215.7,2565.9,143.6,65.5
0.193705,407.8,113.6,2232.8,179.3,2649.6,751.8,408.5,2220.8,2567.2,143.6,65.4
0.195705,415.8,116.9,2235.4,185.2,2610.4,718.7,410.3,2225.8,2568.5,143.6,65.4
0.197705,421.9,118.3,2231.7,195.1,2588.7,613.7,412.1,2230.6,2569.7,143.6,65.4
0.199705,424.8,119.4,2232.7,193.5,2589.9,498.1,414,2235.2,2570.7,143.5,65.4
0.201705,426.9,121.7,2245.3,178.7,2596.8,448.3,416,2239.6,2571.7,143.5,65.5
0.203705,430.9,124.3,2261.5,162.1,2609.9,464.4,418,2243.6,2572.5,143.4,65.5
0.205705,435.2,125.8,2273.1,151.7,2629.7,524.8,420.1,2247.4,2573.2,143.3,65.4
0.207705,438.6,123.7,2274.2,156.1,2634.7,567.1,422.2,2250.8,2573.7,143.2,65.4
0.209705,442.1,117.6,2264.6,178.0,2607.3,512.8,424.3,2253.7,2574.1,143.1,65.3
0.211705,443.8,110.6,2252.0,203.4,2581.8,412.6,426.5,2256.3,2574.2,142.9,65.2
0.213705,441.7,106.2,2248.5,228.1,2567.0,360.7,428.8,2258.4,2574.2,142.7,65.1
0.215705,438.6,104.0,2256.4,258.9,2551.6,360.9,431,2260,2573.9,142.5,65.1
0.217705,438.1,102.0,2267.4,278.7,2544.3,375.8,433.3,2261.1,2573.4,142.3,65
0.219705,440.2,99.1,2262.6,266.9,2564.8,342.7,435.6,2261.7,2572.7,142,65
0.221705,443.2,94.8,2247.7,232.0,2589.4,260.2,438,2261.8,2571.8,141.8,64.9
0.223705,445.7,90.3,2239.8,196.2,2596.9,190.7,440.3,2261.4,2570.7,141.4,64.8
0.225705,445.8,87.8,2237.8,174.2,2595.0,151.7,442.7,2260.5,2569.4,141.1,64.8
0.227705,442.2,87.5,2236.6,168.0,2590.5,136.2,445,2259.1,2567.9,140.7,64.7
0.229705,438.0,87.1,2234.5,172.0,2584.0,135.0,447.4,2257.3,2566.1,140.3,64.6
0.231705,437.0,85.5,2233.7,179.8,2573.8,143.7,449.7,2254.9,2564.2,139.9,64.5
0.233705,438.5,83.5,2236.5,191.0,2557.3,165.6,452.1,2252.2,2562.1,139.4,64.5
0.235705,440.2,82.3,2243.7,210.6,2533.7,206.9,454.4,2249,2559.8,139,64.4
0.237705,442.0,83.1,2256.3,241.8,2509.7,267.7,456.6,2245.5,2557.4,138.5,64.3
0.239705,444.6,86.3,2269.2,282.1,2493.6,324.3,458.9,2241.6,2554.9,137.9,64.2
0.241705,447.7,90.6,2275.5,329.3,2484.2,346.2,461.1,2237.4,2552.2,137.4,64.1
0.243705,451.6,93.5,2284.5,341.7,2482.6,369.1,463.2,2232.9,2549.5,136.9,64
0.245705,457.0,93.6,2292.2,293.4,2499.7,419.3,465.3,2228.3,2546.7,136.3,63.9
0.247705,463.7,90.7,2282.5,236.4,2536.0,437.6,467.4,2223.5,2543.8,135.8,63.9
0.249705,470.4,85.5,2263.6,198.4,2560.3,397.9,469.3,2218.5,2540.9,135.2,63.9
0.251705,475.7,80.8,2242.6,177.8,2552.1,327.4,471.2,2213.5,2538,134.6,63.9
0.253705,478.1,80.2,2218.4,171.4,2520.4,250.9,473,2208.5,2535.1,134.1,63.9
0.255705,477.6,82.1,2196.0,165.5,2494.8,193.4,474.8,2203.5,2532.3,133.6,63.8
0.257705,475.3,81.6,2186.2,155.7,2486.4,167.1,476.4,2198.6,2529.6,133.1,63.7
0.259705,472.8,75.9,2187.7,145.2,2490.2,159.0,477.9,2193.8,2526.9,132.6,63.5
0.261705,471.4,66.4,2193.8,136.6,2500.8,158.4,479.4,2189.2,2524.4,132.1,63.2
0.263705,470.8,55.6,2199.4,137.7,2513.4,166.2,480.7,2184.8,2522,131.6,62.9
0.265705,470.9,46.6,2199.4,162.1,2521.4,188.1,481.9,2180.7,2519.7,131.2,62.6
0.267705,473.1,41.2,2183.3,210.4,2517.1,206.2,483,2177,2517.6,130.8,62.3
0.269705,478.7,39.3,2152.2,216.4,2517.6,195.2,484,2173.5,2515.8,130.4,62.1
0.271705,486.0,39.9,2135.4,173.5,2527.9,182.7,484.9,2170.5,2514.1,130.1,62
0.273705,492.6,40.7,2132.3,139.5,2534.7,175.1,485.6,2167.8,2512.7,129.8,61.7
0.275705,497.1,39.6,2134.2,120.2,2537.4,169.0,486.2,2165.7,2511.5,129.5,61.4
0.277705,499.9,36.7,2137.9,108.8,2540.5,165.4,486.7,2163.9,2510.6,129.3,60.8
0.279705,501.9,33.7,2142.3,104.1,2547.7,169.4,487,2162.7,2509.9,129.1,60.1
0.281705,502.2,33.1,2146.2,112.4,2558.7,189.2,487.2,2161.9,2509.5,128.9,59.1
0.283705,499.2,37.9,2149.7,151.3,2565.4,232.0,487.3,2161.7,2509.4,128.8,57.9
