time,f1,b1,f2,b2,f3,b3,f1p,f2p,f3p,f0,intensity
0.025737,354.9,84.7,2444.6,474.8,2929.6,267.7,376.9,2391.3,2854.9,166.8,69.2
0.027737,365.6,94.5,2437.4,426.1,2907.9,283.1,379.4,2389.6,2854,166.8,69.1
0.029737,380.0,104.4,2442.0,337.4,2907.2,281.6,383.4,2386.7,2852.6,166.8,69
0.031737,396.6,111.6,2446.5,265.6,2916.7,260.1,389,2382.7,2850.7,166.8,69
0.033737,414.6,114.0,2444.5,228.4,2917.1,232.8,395.9,2377.3,2848.3,166.8,68.9
0.035737,432.5,111.4,2432.7,218.6,2904.9,209.4,404.1,2370.7,2845.4,166.9,68.9
0.037737,447.1,105.7,2411.0,220.5,2887.9,191.7,413.4,2362.8,2842.2,166.9,69
0.039737,459.0,97.8,2379.1,215.9,2870.8,181.9,423.5,2353.5,2838.6,166.9,69
0.041737,468.8,89.0,2345.4,197.2,2855.2,189.5,434.4,2342.7,2834.7,166.9,69
0.043737,477.0,81.1,2319.4,177.3,2836.5,221.2,445.7,2330.4,2830.5,166.9,69
0.045737,483.4,75.7,2303.1,173.0,2810.6,270.7,457.3,2316.6,2826.3,166.9,69
0.047737,488.0,73.5,2288.0,195.4,2777.7,310.3,469.1,2301.2,2822,166.9,68.9
0.049737,491.2,74.6,2259.6,251.8,2744.6,303.8,480.7,2284.2,2817.7,167,68.8
0.051737,493.1,80.0,2198.6,339.8,2724.1,232.8,492,2265.7,2813.5,167,68.6
0.053737,493.2,91.5,2124.7,403.6,2720.4,150.8,502.9,2245.6,2809.6,167,68.4
0.055737,491.7,112.1,2084.1,409.3,2719.3,111.0,513.1,2224,2806,167,68.1
0.057737,486.4,141.5,2064.6,382.6,2720.5,106.0,522.7,2201,2802.8,167,67.7
0.059737,479.8,170.8,2036.7,341.4,2724.4,117.9,531.6,2176.8,2800.1,167.1,67.4
0.061737,480.4,194.3,2009.4,299.3,2728.6,144.9,539.6,2151.3,2798.1,167.1,67.1
0.063737,483.9,214.4,2000.3,291.5,2735.8,212.5,546.7,2124.8,2796.7,167.1,66.9
0.065737,484.7,231.5,2017.1,332.0,2740.2,320.6,553.1,2097.5,2796.2,167.1,66.7
0.067737,486.0,250.3,2050.1,402.9,2726.2,404.3,558.8,2069.5,2796.5,167.2,66.6
0.069737,488.4,272.7,2083.6,477.1,2706.7,446.4,563.8,2041.1,2797.8,167.2,66.5
0.071737,491.0,300.4,2107.0,538.3,2702.4,491.6,568.3,2012.6,2800.1,167.2,66.5
0.073737,497.4,340.6,2110.9,567.9,2727.4,561.6,572.4,1984.1,2803.5,167.2,66.5
0.075737,516.5,395.8,2084.0,548.1,2791.9,612.0,576.4,1955.9,2807.9,167.2,66.5
0.077737,565.0,453.5,2022.7,489.7,2862.1,553.3,580.3,1928.2,2813.5,167.2,66.4
0.079737,634.3,447.5,1951.6,415.3,2883.8,425.4,584.5,1901.4,2820.3,167.2,66.4
0.081737,684.9,391.2,1899.1,352.5,2895.9,304.2,589,1875.5,2828.2,167.1,66.3
0.083737,714.9,342.6,1873.8,332.3,2913.8,216.3,594.2,1850.9,2837.1,167.1,66.2
0.085737,735.8,317.7,1869.7,367.3,2930.5,169.1,600.2,1827.6,2847.2,167,66
0.087737,751.7,312.3,1873.3,438.8,2942.8,152.6,607.1,1805.9,2858.2,166.9,65.9
0.089737,762.4,325.6,1863.8,491.6,2953.7,151.4,615.2,1785.8,2870.1,166.8,65.7
0.091737,762.9,371.6,1823.5,443.5,2968.9,157.0,624.5,1767.4,2882.9,166.7,65.6
0.093737,751.5,460.8,1769.5,319.9,2994.8,151.0,635.2,1750.7,2896.3,166.5,65.4
0.095737,722.7,610.4,1728.4,219.4,3020.1,119.1,647.3,1735.7,2910.3,166.3,65.2
0.097737,643.8,833.8,1703.5,164.2,3032.4,94.3,660.9,1722.4,2924.6,166.1,65.1
0.099737,517.2,996.7,1693.3,132.7,3036.0,83.3,675.9,1710.7,2939.2,165.9,64.9
0.101737,508.1,1021.0,1693.7,120.5,3036.8,79.9,692.3,1700.2,2953.9,165.6,64.7
0.103737,613.5,951.0,1698.9,124.5,3037.7,83.8,709.8,1691,2968.4,165.3,64.4
0.105737,700.8,865.8,1698.2,140.2,3035.9,98.0,728.5,1682.6,2982.6,165,64.1
0.107737,746.4,902.6,1672.9,148.7,3021.1,119.4,748,1674.9,2996.2,164.6,63.8
0.109737,746.9,1067.8,1631.4,124.1,2987.8,130.6,768.1,1667.5,3009.1,164.2,63.6
0.111737,723.9,1207.4,1605.2,87.8,2952.7,124.1,788.5,1660,3021.1,163.8,63.4
0.113737,731.6,1210.7,1595.8,66.8,2933.5,117.9,809,1652.2,3032,163.3,63.3
0.115737,784.5,1081.1,1595.6,59.0,2932.4,125.1,829,1643.6,3041.5,162.8,63.2
0.117737,844.6,888.7,1601.1,59.2,2948.6,146.1,848.4,1634,3049.5,162.3,63.1
0.119737,886.6,703.7,1607.6,62.6,2974.9,169.2,866.7,1622.8,3056,161.7,63
0.121737,909.6,569.5,1611.1,68.0,2997.6,183.6,883.5,1609.9,3060.6,161.1,62.8
0.123737,918.2,502.6,1611.0,75.6,3006.6,183.4,898.5,1594.9,3063.3,160.4,62.6
0.125737,915.2,490.9,1608.3,84.4,3002.3,166.7,911.3,1577.6,3064.1,159.7,62.4
0.127737,902.3,518.8,1600.7,96.2,2992.8,141.2,921.6,1557.7,3062.8,158.9,62.3
0.129737,892.0,580.3,1581.3,120.1,2988.7,126.3,929,1535.1,3059.4,158,62.1
0.131737,905.5,674.7,1537.1,169.9,2993.7,133.3,933.3,1509.7,3053.9,157.1,62
0.133737,935.6,822.7,1463.4,231.0,3003.1,160.6,934.2,1481.5,3046.4,156.1,61.9
0.135737,954.2,999.4,1391.2,264.1,3007.6,199.9,931.6,1450.5,3036.8,155,61.8
0.137737,968.0,1057.5,1348.4,304.2,3000.5,238.5,925.4,1416.8,3025.3,153.9,61.7
0.139737,995.8,940.8,1321.0,399.2,2983.3,265.6,915.5,1380.7,3012.1,152.6,61.6
0.141737,1051.5,810.0,1252.3,550.4,2963.2,289.9,902,1342.3,2997.2,151.2,61.5
0.143737,1055.6,1155.1,1155.0,375.9,2946.4,309.7,884.8,1302.2,2980.8,149.7,61.4
0.145737,884.2,1466.2,1160.0,233.8,2937.0,319.7,864.2,1260.7,2963.2,148.1,61.3
0.147737,743.8,1628.7,1167.9,176.2,2928.0,340.8,840.3,1218.2,2944.6,146.3,61.2
0.149737,635.9,1853.0,1169.5,163.2,2913.3,372.1,813.4,1175.4,2925.2,144.4,61.1
0.151737,576.8,2060.7,1166.4,182.2,2897.1,372.2,783.9,1132.8,2905.2,142.4,61
0.153737,681.2,1945.0,1159.2,245.9,2879.0,331.1,752.1,1091,2885.1,140.2,60.8
0.155737,791.4,1683.4,1143.6,366.2,2870.8,295.9,718.4,1050.8,2865,137.9,60.7
0.157737,850.6,1619.8,1100.8,496.6,2885.2,287.8,683.4,1012.8,2845.2,135.4,60.5
0.159737,815.7,1951.0,1040.1,490.4,2922.7,282.0,647.4,977.7,2826.1,132.8,60.2
0.161737,561.5,2406.1,1010.7,402.3,2960.3,242.4,611,946.1,2807.9,130.1,59.9
0.163737,183.2,2562.7,998.8,349.7,2980.0,191.3,574.7,918.7,2790.9,127.3,59.6
0.165737,316.4,2451.3,986.1,364.4,2983.4,167.3,539.1,896.2,2775.3,124.4,59.2
0.167737,633.4,2251.2,952.5,452.9,2973.1,178.7,504.6,879,2761.4,121.4,58.9
0.169737,879.4,554.4,894.7,2117.2,2948.8,229.6,471.7,867.7,2749.3,118.3,58.5
0.171737,836.9,565.7,888.7,2355.0,2914.0,320.8,441,862.7,2739.3,115.1,58.2
0.173737,93.7,1262.5,870.3,532.5,2881.4,446.4,412.7,864.3,2731.5,112,57.9
0.175737,316.0,877.4,914.9,465.2,2837.9,593.8,387.3,872.7,2726,0,57.6
0.177737,340.0,705.4,947.7,405.4,2729.3,661.7,365.1,888,2722.9,105.7,57.3
0.179737,345.2,560.6,978.6,359.9,2620.6,555.7,346.3,910.3,2722.1,102.5,57
0.181737,348.2,446.8,1006.9,346.9,2578.4,450.0,331.2,939.5,2723.8,99.5,56.7
0.183737,354.7,377.5,1032.4,387.8,2577.2,423.4,319.7,975.3,2727.9,96.5,56.5
0.185737,364.0,335.5,1059.0,489.0,2591.0,470.5,312.1,1017.5,2734.2,93.6,56.4
0.187737,368.3,297.8,1087.7,617.2,2601.3,559.8,308.1,1065.5,2742.6,90.8,56.6
0.189737,361.7,272.3,1105.1,712.0,2596.8,644.2,307.8,1118.8,2753.1,88.1,56.8
0.191737,344.7,263.4,1107.1,722.1,2581.8,662.8,310.8,1176.8,2765.3,85.6,57.1
0.193737,315.8,259.9,1111.1,643.7,2574.0,585.4,317.1,1238.7,2779.1,83.2,57.3
0.195737,281.6,266.3,1127.8,553.3,2587.2,472.7,326.2,1303.6,2794.2,81,57.4
0.197737,251.7,295.6,1140.3,515.9,2603.2,419.3,337.9,1370.8,2810.3,78.9,57.5
0.199737,237.3,341.8,1133.5,561.6,2615.5,491.7,351.6,1439.2,2827.1,77,57.6
0.201737,248.3,388.2,1116.6,750.9,2650.2,753.2,367,1507.9,2844.4,75.3,57.7
0.203737,282.9,419.5,1125.7,1260.8,2805.4,1486.6,383.6,1575.8,2861.8,73.7,57.8
0.205737,333.9,410.1,1750.9,1568.0,3152.8,476.5,400.9,1642,2879,72.2,57.7
0.207737,365.5,363.9,1895.5,1209.1,3112.6,442.8,418.4,1705.4,2895.7,70.9,57.4
0.209737,379.0,346.3,1973.2,1028.9,3062.7,452.1,435.6,1765.2,2911.5,69.8,56.9
0.211737,393.5,377.7,1984.3,836.6,3001.8,434.5,452.1,1820.3,2926.3,68.7,56.2
0.213737,437.2,465.7,1960.8,662.6,2944.1,395.8,467.3,1869.9,2939.7,67.8,55.4
0.215737,519.1,546.7,1940.9,562.4,2899.2,377.4,481,1913.3,2951.4,67,54.5
0.217737,590.4,613.4,1934.8,544.1,2867.3,409.6,492.7,1949.8,2961.3,66.3,53.9
0.219737,606.9,739.2,1957.8,619.9,2856.9,547.2,502.1,1978.8,2969.2,0,53.4
0.221737,567.0,934.9,2061.6,720.2,2913.2,923.3,509,1999.8,2975,0,53.2
0.223737,561.8,1008.3,2178.7,548.1,3278.3,1057.5,513.3,2012.6,2978.5,0,53.1
0.225737,617.4,870.7,2198.0,395.7,3335.2,737.7,514.7,2016.8,2979.7,0,53.1
