time,f1,b1,f2,b2,f3,b3,f1p,f2p,f3p,f0,intensity
0.025231,360.1,146.7,986.5,296.8,2635.6,445.8,406.5,864.2,2574.6,180.5,67.7
0.027231,371.6,142.8,987.8,270.2,2666.7,461.1,408.1,875.1,2582.7,180.1,68.9
0.029231,386.6,139.0,997.6,253.6,2690.5,419.9,410.7,892.5,2595.8,179.7,69.7
0.031231,406.2,130.7,1009.3,238.0,2691.5,357.0,414.2,915.9,2613.5,179.2,70.3
0.033231,427.0,119.6,1019.7,227.0,2681.2,293.8,418.5,944.1,2635.1,178.7,70.8
0.035231,446.2,108.7,1029.1,222.7,2676.6,237.9,423.5,975.9,2659.8,178.2,71.1
0.037231,460.1,100.3,1035.0,226.2,2683.0,199.5,429.1,1009.8,2686.6,177.7,71.3
0.039231,466.4,95.5,1034.7,234.8,2693.9,183.8,435,1044.2,2714.6,177.2,71.4
0.041231,468.6,91.8,1031.6,240.3,2702.1,184.5,441.2,1077.6,2742.8,176.6,71.5
0.043231,469.1,87.4,1030.9,232.7,2705.2,199.3,447.4,1108.4,2769.9,176,71.5
0.045231,469.4,81.9,1033.7,211.2,2708.4,231.3,453.5,1135,2795.1,175.4,71.5
0.047231,469.5,77.8,1037.2,186.4,2719.0,280.6,459.3,1156.1,2817.3,174.7,71.5
0.049231,468.9,75.8,1040.2,164.9,2746.9,347.2,464.7,1170.5,2835.8,174.1,71.4
0.051231,468.6,75.6,1042.8,151.7,2786.9,392.5,469.4,1177.4,2849.8,173.4,71.4
0.053231,469.0,74.4,1043.1,142.9,2821.2,384.6,473.5,1176.1,2858.7,172.7,71.4
0.055231,469.2,69.5,1037.3,137.5,2833.6,343.5,476.7,1166.4,2862.2,171.9,71.4
0.057231,468.6,61.3,1025.0,136.2,2829.1,304.5,479.1,1148.4,2860.2,171.1,71.4
0.059231,467.8,53.5,1009.8,141.9,2813.9,297.4,480.5,1122.4,2852.7,170.4,71.4
0.061231,467.2,47.4,992.9,155.0,2788.3,333.7,481,1089.2,2839.8,169.5,71.4
0.063231,467.2,43.5,978.2,170.1,2753.4,392.2,480.6,1049.8,2822.1,168.7,71.4
0.065231,467.6,40.6,967.1,183.1,2718.5,432.1,479.2,1005.7,2800.1,167.8,71.5
0.067231,468.5,38.6,962.1,193.0,2709.1,426.1,477.1,958.2,2774.7,166.9,71.5
0.069231,469.6,37.4,962.4,205.3,2725.4,381.7,474.1,909.3,2746.6,166,71.5
0.071231,470.4,37.1,964.5,222.9,2751.0,313.4,470.5,860.7,2716.9,165.1,71.5
0.073231,469.9,37.0,960.5,242.4,2770.7,261.8,466.4,814.3,2686.6,164.1,71.5
0.075231,467.6,37.2,943.6,266.2,2787.5,245.6,461.8,771.9,2656.9,163.2,71.4
0.077231,464.3,38.5,920.0,294.3,2802.1,268.9,457,735.3,2628.6,162.2,71.2
0.079231,460.7,41.3,897.9,336.2,2813.6,330.7,451.9,706.1,2602.8,161.1,71
0.081231,457.2,46.1,881.5,393.5,2810.2,421.4,446.7,685.6,2580.5,160.1,70.6
0.083231,452.6,53.1,863.4,456.1,2768.5,533.6,441.6,675,2562.4,159,70.2
0.085231,445.9,60.4,842.1,476.6,2674.1,597.7,436.7,674.9,2549.1,158,69.7
0.087231,434.2,66.0,825.1,428.3,2561.1,544.9,431.9,685.9,2541.1,156.9,69.2
0.089231,419.0,66.1,823.6,351.6,2494.3,446.9,427.4,707.9,2538.7,155.8,68.7
0.091231,405.4,64.8,831.0,310.4,2469.0,380.1,423.3,740.7,2542,154.7,68.2
0.093231,399.4,69.5,832.4,340.1,2468.2,361.4,419.4,783.5,2550.9,153.6,67.7
0.095231,400.0,77.7,812.4,429.8,2458.9,365.7,416,835.4,2565.2,152.5,67.4
0.097231,405.6,83.3,768.7,540.4,2437.6,391.9,412.8,895,2584.3,151.4,67
0.099231,413.6,83.9,724.9,632.6,2431.5,449.2,410,960.7,2607.6,150.4,66.7
0.101231,417.3,79.1,730.0,619.9,2473.9,497.6,407.4,1030.8,2634.5,149.3,66.3
0.103231,415.9,69.9,772.0,516.0,2549.6,453.8,405,1103.4,2664,148.2,65.9
0.105231,414.3,62.7,810.4,459.1,2600.6,371.7,402.7,1176.4,2695.3,147.1,65.5
0.107231,411.9,61.6,842.7,482.7,2631.4,330.7,400.5,1248,2727.5,146.1,65
0.109231,406.1,66.6,871.7,592.9,2653.4,345.2,398.2,1316.1,2759.4,145.1,64.5
0.111231,398.2,73.8,902.9,805.0,2671.8,427.7,395.8,1379.1,2790.4,144.1,64.1
0.113231,390.4,79.5,957.2,1258.8,2718.1,654.1,393.2,1435.3,2819.3,143.1,63.7
0.115231,386.0,82.1,2006.9,2029.8,2953.2,721.0,390.4,1483.4,2845.6,142.1,63.4
0.117231,387.0,84.5,1933.9,928.6,3005.4,571.1,387.2,1522.5,2868.6,141.2,63.1
0.119231,391.4,89.7,1960.2,727.5,3031.0,575.1,383.7,1551.7,2887.6,140.3,63
0.121231,395.5,101.0,1984.0,697.2,3050.0,606.5,379.8,1570.7,2902.5,139.5,62.9
0.123231,394.5,115.7,1970.8,756.3,3037.6,586.0,375.6,1579.5,2912.9,138.6,62.8
0.125231,382.7,129.6,1925.7,897.7,3021.3,545.0,370.9,1578.5,2918.7,137.9,62.8
0.127231,361.2,133.3,1863.1,1134.4,3009.1,551.3,365.9,1568.2,2920.2,137.1,62.8
0.129231,337.9,122.9,1753.2,1505.0,2985.1,606.6,360.5,1549.7,2917.5,136.4,62.8
0.131231,324.7,113.1,1588.8,1734.3,2969.3,627.4,354.9,1524.1,2911.1,135.7,62.8
0.133231,321.1,115.6,1539.5,1645.2,2990.3,573.9,349.1,1492.8,2901.4,135.1,62.8
0.135231,323.0,132.3,1541.4,1621.5,2998.8,529.0,343.1,1457.4,2889,134.6,62.7
0.137231,326.0,162.3,1503.1,1907.0,2959.9,561.0,337,1419.5,2874.6,134,62.6
0.139231,328.0,190.1,1280.2,2508.4,2866.5,636.2,331,1380.7,2858.9,133.5,62.3
0.141231,328.5,197.5,966.4,2603.7,2751.7,645.3,325,1342.6,2842.4,133.1,62
0.143231,326.0,182.0,874.8,2506.0,2672.0,623.9,319.2,1306.7,2826,132.7,61.8
0.145231,321.3,159.0,890.7,2391.2,2640.4,650.6,313.6,1274.4,2810.1,132.4,61.5
0.147231,315.9,135.3,1013.3,2393.9,2679.0,760.6,308.4,1246.6,2795.5,132,61.2
0.149231,310.3,115.9,1217.6,1994.9,2772.2,780.6,303.5,1224.4,2782.4,131.8,60.9
0.151231,304.9,104.3,1251.1,1393.4,2765.0,646.4,299,1208.2,2771.4,131.5,60.5
0.153231,301.2,106.4,1227.5,1074.7,2723.9,498.4,294.9,1198.5,2762.5,131.3,60
0.155231,300.3,123.0,1198.1,933.2,2703.4,378.6,291.3,1195.1,2756,131.2,59.5
0.157231,302.4,146.2,1178.2,889.6,2700.4,316.4,288.2,1197.9,2751.9,131.1,59
0.159231,302.6,166.4,1177.4,846.7,2704.7,300.2,285.5,1206.3,2750.1,131,58.8
0.161231,295.4,170.3,1196.8,774.4,2709.4,327.0,283.2,1219.5,2750.2,130.9,58.7
0.163231,285.2,155.5,1233.1,704.0,2709.4,399.1,281.4,1236.6,2752.2,130.8,59
0.165231,279.0,136.8,1276.9,679.6,2705.8,497.5,279.9,1256.4,2755.6,130.8,59.3
0.167231,275.6,121.1,1323.5,695.5,2710.9,581.7,278.7,1277.8,2759.9,130.8,59.7
0.169231,273.2,111.2,1359.0,742.0,2738.8,600.2,277.8,1299.5,2764.9,130.8,59.9
0.171231,271.7,107.6,1384.0,830.2,2791.5,566.7,277.1,1320.4,2769.9,130.9,60
0.173231,271.9,110.2,1403.6,940.9,2846.6,509.3,276.7,1339.2,2774.7,130.9,60
0.175231,272.7,115.9,1423.9,1011.9,2881.5,445.1,276.3,1354.9,2778.9,130.9,59.9
0.177231,271.6,122.6,1426.4,949.1,2883.7,400.1,276.1,1366.8,2782.1,131,59.6
0.179231,268.5,131.5,1396.8,779.6,2857.3,391.6,276,1374.2,2784.1,131,59.2
0.181231,266.0,149.7,1352.9,598.0,2806.8,415.4,276,1376.7,2784.8,131.1,58.7
