time,f1,b1,f2,b2,f3,b3,f1p,f2p,f3p,f0,intensity
0.025467,657.4,323.3,1944.0,290.0,2601.2,541.3,717.4,2064.3,2697.1,165,68.4
0.027467,704.9,272.8,2022.2,217.0,2672.7,435.9,716.7,2071.6,2703.6,165.1,68.5
0.029467,726.9,225.4,2069.2,179.0,2723.2,333.3,715.6,2083.6,2714,165.1,68.6
0.031467,734.2,201.0,2104.8,177.2,2752.9,268.7,713.9,2099.9,2728.3,165.2,68.6
0.033467,734.9,189.1,2142.0,194.8,2775.9,230.4,711.7,2120.1,2746,165.3,68.7
0.035467,730.5,182.5,2179.2,218.9,2796.7,207.4,708.8,2143.6,2766.6,165.3,68.7
0.037467,722.4,176.9,2213.2,242.8,2813.9,194.8,705.1,2170,2789.6,165.4,68.7
0.039467,711.4,169.2,2245.9,264.6,2828.8,193.4,700.7,2198.4,2814.3,165.5,68.6
0.041467,698.6,159.3,2275.1,280.3,2844.6,205.5,695.4,2228.3,2840.3,165.6,68.6
0.043467,685.3,148.0,2301.0,290.7,2864.7,229.1,689.2,2259.1,2866.9,165.7,68.5
0.045467,672.4,133.9,2326.9,296.8,2892.5,259.7,682,2290,2893.4,165.7,68.4
0.047467,661.2,118.5,2351.0,298.3,2926.7,285.4,673.8,2320.6,2919.5,165.8,68.3
0.049467,651.5,103.2,2371.3,298.8,2963.2,295.8,664.5,2350.3,2944.6,165.9,68.3
0.051467,643.7,90.6,2385.7,302.0,2991.3,291.4,654.2,2378.8,2968.3,166,68.2
0.053467,636.5,81.5,2396.6,311.9,3009.1,283.5,643,2405.6,2990.4,166.1,68.2
0.055467,628.7,76.9,2404.8,333.2,3019.0,280.3,630.9,2430.6,3010.6,166.1,68.2
0.057467,620.7,76.3,2412.1,364.7,3026.1,280.6,617.9,2453.6,3028.8,166.2,68.3
0.059467,611.9,80.5,2422.6,407.3,3034.2,281.3,604.3,2474.7,3045.1,166.2,68.3
0.061467,601.8,90.0,2438.3,459.0,3041.5,282.3,590.1,2493.7,3059.4,166.3,68.3
0.063467,589.0,100.7,2457.5,511.4,3044.8,285.2,575.6,2510.8,3072.1,166.3,68.4
0.065467,570.6,108.9,2482.7,561.5,3044.5,294.9,560.9,2526,3083.3,166.4,68.5
0.067467,548.4,110.9,2514.7,604.1,3043.3,317.6,546.2,2539.7,3093.2,166.4,68.6
0.069467,527.2,107.1,2551.4,622.2,3048.6,355.9,531.7,2551.8,3102.3,166.4,68.7
0.071467,507.7,99.4,2589.3,584.8,3074.9,410.6,517.7,2562.5,3110.9,166.4,68.9
0.073467,491.3,89.9,2614.1,503.4,3127.3,448.8,504.2,2572.1,3119.2,166.4,69.1
0.075467,479.4,80.8,2624.6,437.0,3175.9,444.4,491.6,2580.6,3127.6,166.4,69.3
0.077467,471.4,72.8,2628.1,404.1,3200.4,425.4,479.9,2588,3136.4,166.4,69.4
0.079467,466.0,67.1,2627.0,407.1,3200.9,414.2,469.2,2594.6,3145.6,166.3,69.6
0.081467,461.7,63.5,2620.4,422.9,3190.6,402.7,459.8,2600.1,3155.6,166.3,69.7
0.083467,457.4,61.7,2609.9,411.0,3181.4,385.0,451.5,2604.8,3166.4,166.2,69.8
0.085467,452.9,61.4,2605.4,365.1,3178.2,371.6,444.6,2608.4,3177.9,166.2,69.9
0.087467,447.6,61.9,2608.0,319.7,3178.6,366.7,438.9,2611.1,3190.1,166.1,69.9
0.089467,442.7,62.7,2613.2,289.7,3182.7,369.7,434.4,2612.7,3202.8,166,69.9
0.091467,437.9,64.0,2618.2,267.9,3194.1,377.3,431.1,2613.1,3215.8,165.9,69.8
0.093467,433.6,65.0,2619.3,249.1,3215.8,380.2,428.7,2612.5,3228.9,165.8,69.8
0.095467,430.3,65.6,2613.6,232.9,3243.7,370.9,427.3,2610.7,3241.7,165.7,69.7
0.097467,427.3,65.9,2600.6,219.6,3271.2,349.8,426.7,2607.9,3253.9,165.6,69.7
0.099467,424.6,66.0,2585.7,211.3,3286.0,328.6,426.6,2604.1,3265.1,165.5,69.6
0.101467,422.4,65.9,2574.6,208.9,3285.6,317.3,426.9,2599.4,3275.1,165.4,69.5
0.103467,420.6,65.8,2566.8,209.9,3275.7,314.7,427.4,2594,3283.4,165.3,69.4
0.105467,419.8,65.9,2562.0,207.6,3265.3,315.2,427.9,2588,3289.9,165.2,69.3
0.107467,420.3,66.1,2559.3,198.5,3260.7,312.0,428.3,2581.6,3294.2,165.1,69.3
0.109467,421.9,66.7,2557.8,183.6,3263.5,301.0,428.5,2575.1,3296.4,165,69.2
0.111467,423.9,66.9,2558.6,167.6,3271.6,282.7,428.4,2568.6,3296.2,165,69.2
0.113467,425.3,66.7,2561.7,154.7,3279.5,262.2,427.7,2562.4,3293.6,164.9,69.1
0.115467,425.6,66.3,2564.6,145.6,3284.3,240.7,426.6,2556.7,3288.8,164.8,69.1
0.117467,425.1,65.9,2565.4,140.0,3284.6,219.8,425,2551.5,3282,164.7,69.1
0.119467,424.5,65.6,2564.2,136.1,3281.1,201.0,422.8,2547,3273.2,164.6,69.1
0.121467,424.2,66.0,2562.3,132.5,3274.5,186.5,420.2,2543.3,3263,164.5,69.1
0.123467,424.1,66.5,2561.1,129.7,3267.7,181.8,417.2,2540.4,3251.5,164.4,69.1
0.125467,422.9,66.4,2561.5,129.7,3262.9,187.6,414,2538.2,3239.3,164.4,69.1
0.127467,420.1,65.5,2563.1,134.2,3259.7,198.4,410.6,2536.8,3226.7,164.3,69
0.129467,415.7,64.3,2564.1,142.6,3255.0,208.1,407.1,2536,3214.2,164.2,69
0.131467,410.7,63.5,2562.8,155.0,3246.8,214.8,403.7,2535.7,3202.3,164.2,68.9
0.133467,405.5,63.3,2558.6,172.5,3235.8,223.2,400.6,2535.7,3191.4,164.1,68.7
0.135467,399.6,62.8,2550.0,195.5,3223.1,238.8,397.8,2536,3181.9,164.1,68.5
0.137467,393.5,61.4,2535.9,219.4,3210.6,268.1,395.6,2536.4,3174.1,164,68.1
0.139467,387.7,59.9,2517.3,243.2,3134.1,1948.9,393.9,2536.8,3168.3,164,67.6
0.141467,382.3,60.5,2494.0,265.9,3096.8,1762.4,392.8,2537,3164.8,163.9,66.9
0.143467,379.2,64.8,2466.8,274.7,3049.4,534.4,392.5,2537.1,3163.6,163.9,66.1
