time,f1,b1,f2,b2,f3,b3,f1p,f2p,f3p,f0,intensity
0.025585,364.6,81.9,2237.4,179.7,2945.8,303.0,386,2305.7,2921.8,162.6,61.7
0.027585,376.7,93.0,2233.0,185.6,2922.0,265.1,391.8,2312,2924,162.9,61.8
0.029585,391.1,106.3,2240.1,205.0,2906.3,216.2,401.3,2322.4,2927.6,163.3,62
0.031585,407.1,128.8,2267.6,244.5,2896.7,167.5,414.2,2336.4,2932.4,163.6,62.2
0.033585,419.6,169.4,2331.3,302.9,2894.9,139.8,430,2353.9,2938.3,163.9,62.5
0.035585,429.0,241.2,2439.5,346.5,2904.3,145.4,448.3,2374.2,2945.2,164.2,63
0.037585,446.6,346.7,2542.5,320.6,2928.6,182.9,468.5,2397,2952.6,164.5,63.5
0.039585,483.7,464.2,2585.2,250.8,2971.9,224.4,489.9,2421.5,2960.5,164.9,64
0.041585,531.2,536.6,2574.1,194.1,3013.7,237.7,511.9,2447.3,2968.6,165.2,64.5
0.043585,580.8,538.1,2547.5,154.8,3037.2,239.4,533.8,2473.6,2976.7,165.5,65
0.045585,621.9,488.0,2521.4,125.3,3045.6,247.8,554.8,2499.9,2984.5,165.8,65.4
0.047585,643.3,439.1,2505.3,106.9,3043.5,268.7,574.4,2525.6,2991.8,166.1,65.6
0.049585,646.7,416.2,2500.2,99.6,3031.8,291.7,591.7,2550.1,2998.5,166.3,65.8
0.051585,636.0,412.5,2502.2,101.6,3013.2,298.0,606.3,2572.9,3004.5,166.6,65.8
0.053585,616.1,415.0,2507.7,110.2,2998.0,280.1,617.6,2593.7,3009.7,166.9,65.9
0.055585,594.3,418.6,2516.3,125.4,2997.4,245.8,625.3,2612,3014,167.1,65.9
0.057585,573.9,423.4,2533.3,156.1,3004.8,216.6,628.9,2627.6,3017.5,167.3,66
0.059585,558.8,433.0,2568.4,212.1,3008.4,216.5,628.4,2640.4,3020.2,167.5,66.1
0.061585,553.8,446.6,2633.8,281.8,3002.4,264.5,623.6,2650.3,3022.1,167.8,66.2
0.063585,560.2,450.8,2699.8,301.6,2984.1,362.4,614.5,2657.3,3023.4,167.9,66.3
0.065585,568.0,444.4,2728.5,275.7,2962.3,471.1,601.4,2661.5,3024,168.1,66.3
0.067585,574.1,435.3,2733.8,249.9,2957.2,541.4,584.6,2663,3024.2,168.3,66.4
0.069585,581.3,423.2,2733.6,233.6,2981.6,555.9,564.3,2662.1,3024.1,168.5,66.4
0.071585,585.7,417.6,2724.0,222.6,3022.1,511.1,541.2,2659.1,3023.6,168.6,66.3
0.073585,577.0,441.8,2692.4,202.0,3057.5,430.2,515.7,2654.3,3022.9,168.7,66.3
0.075585,547.0,501.9,2654.2,168.1,3076.8,371.4,488.5,2648,3022,168.8,66.2
0.077585,491.6,580.2,2625.6,140.3,3078.0,351.1,460.2,2640.5,3020.9,169,66.2
0.079585,430.3,635.5,2608.4,133.2,3058.4,353.3,431.7,2632.2,3019.5,169,66.2
0.081585,396.4,657.9,2595.2,144.1,3028.8,351.7,403.4,2623.3,3017.8,169.1,66.1
0.083585,382.4,664.7,2579.1,162.6,3007.7,337.9,376.1,2614.3,3015.7,169.2,66.1
0.085585,352.0,653.8,2563.4,159.8,3010.1,328.6,350.5,2605.3,3013.2,169.2,66.1
0.087585,301.2,587.0,2556.9,126.1,3024.9,336.0,327.1,2596.5,3009.9,169.3,66
0.089585,275.4,497.3,2557.8,98.2,3029.1,347.9,306.3,2588.1,3005.9,169.3,65.9
0.091585,262.3,442.5,2562.0,89.7,3012.6,347.7,288.6,2580.2,3001,169.3,65.8
0.093585,253.3,418.7,2568.4,99.4,2982.5,330.9,274.3,2573,2995,169.3,65.7
0.095585,250.7,409.2,2577.2,120.3,2954.4,310.6,263.5,2566.3,2987.9,169.3,65.5
0.097585,256.4,398.4,2585.5,142.2,2940.8,293.9,256.3,2560.3,2979.6,169.3,65.3
0.099585,267.7,379.2,2589.1,162.3,2944.9,271.2,252.6,2554.9,2970.2,169.3,65.1
0.101585,277.9,356.0,2586.0,185.7,2956.4,239.1,252.3,2550,2959.5,169.2,64.9
0.103585,281.9,329.3,2582.9,216.8,2958.5,215.3,255.2,2545.4,2947.8,169.2,64.7
0.105585,279.8,299.6,2581.0,239.5,2947.5,214.4,260.8,2541.3,2935.2,169.1,64.5
0.107585,275.9,268.9,2565.1,238.5,2924.9,228.7,268.7,2537.3,2921.8,169.1,64.4
0.109585,274.7,246.3,2535.6,215.5,2895.5,249.4,278.4,2533.4,2908,169,64.3
0.111585,279.2,239.5,2513.0,186.8,2868.8,272.0,289.4,2529.6,2893.9,168.9,64.1
0.113585,291.1,256.7,2501.2,158.7,2861.7,273.4,301,2525.7,2880,168.9,64
0.115585,310.8,298.4,2496.9,136.0,2881.6,234.0,312.8,2521.7,2866.6,168.8,63.7
0.117585,332.3,330.6,2496.0,124.0,2897.1,190.3,324.1,2517.5,2853.9,168.7,63.4
0.119585,341.9,318.9,2493.5,119.0,2894.7,167.5,334.5,2513.1,2842.4,168.6,63.1
0.121585,340.7,276.0,2487.2,115.9,2876.3,162.1,343.5,2508.5,2832.4,168.5,62.8
0.123585,336.0,234.2,2479.6,113.6,2845.6,167.7,350.7,2503.7,2824.1,168.5,62.5
0.125585,332.7,206.2,2474.1,112.8,2809.8,175.1,355.8,2498.8,2817.7,168.4,62.2
0.127585,332.9,187.8,2472.9,114.3,2779.5,183.5,358.6,2493.7,2813.5,168.3,61.9
0.129585,336.4,171.8,2475.6,118.1,2754.4,198.3,359,2488.5,2811.4,168.3,61.6
0.131585,341.0,157.0,2481.9,122.7,2735.6,222.1,356.9,2483.3,2811.5,168.2,61.3
0.133585,344.5,144.8,2492.3,120.1,2737.2,255.9,352.6,2478.1,2813.8,168.2,60.8
0.135585,347.7,140.7,2501.0,105.0,2777.0,272.3,346.1,2473.1,2818,168.1,60.4
0.137585,353.0,146.5,2505.0,92.0,2838.2,243.3,337.7,2468.2,2824,168.1,59.9
0.139585,358.8,158.3,2503.5,94.5,2883.1,208.2,327.9,2463.6,2831.3,168.1,59.5
0.141585,359.2,171.2,2496.3,114.5,2909.5,204.7,317,2459.3,2839.8,168,59.1
0.143585,350.1,184.4,2485.9,147.5,2924.5,228.0,305.5,2455.3,2849,168,58.8
0.145585,330.1,199.8,2471.4,191.4,2928.8,252.7,293.8,2451.7,2858.4,168,58.6
0.147585,302.4,211.1,2453.7,244.5,2919.2,255.2,282.5,2448.6,2867.6,168,58.5
0.149585,275.5,216.8,2436.7,302.8,2900.0,252.6,272,2445.8,2876.3,168,58.5
0.151585,252.9,226.6,2423.8,362.0,2875.6,277.3,262.8,2443.6,2884,168,58.3
0.153585,237.0,245.1,2421.1,406.6,2850.9,348.9,255.2,2441.8,2890.4,168,58.1
0.155585,226.6,268.6,2424.5,405.6,2837.8,455.9,249.5,2440.6,2895.2,168,57.7
0.157585,219.5,293.2,2419.8,358.9,2851.8,532.4,246,2439.8,2898.1,168,57.1
0.159585,211.7,322.9,2418.3,318.3,2874.7,582.1,244.8,2439.5,2899.1,168,56.4
