time,f1,b1,f2,b2,f3,b3,f1p,f2p,f3p,f0,intensity
0.025642,532.3,72.7,2454.7,104.5,2881.1,294.3,533.3,2472.2,2810.6,175.5,65
0.027642,519.9,59.7,2457.2,133.2,2872.3,350.1,532.4,2472.4,2811.1,175.9,65.3
0.029642,512.4,48.5,2463.3,161.8,2860.1,396.6,530.9,2472.6,2812,176.3,65.6
0.031642,508.8,39.4,2470.8,185.3,2842.2,430.7,528.9,2472.9,2813.3,176.8,65.9
0.033642,508.7,33.3,2470.4,198.2,2818.8,444.5,526.3,2473.4,2814.9,177.3,66.2
0.035642,510.2,29.6,2460.1,203.6,2789.4,446.3,523.2,2474.2,2816.8,178,66.4
0.037642,511.7,27.1,2450.3,206.9,2751.8,458.4,519.7,2475.1,2819,178.6,66.6
0.039642,512.7,25.7,2451.2,205.1,2720.9,498.4,515.7,2476.4,2821.6,179.3,66.6
0.041642,513.5,25.1,2458.0,187.3,2726.0,568.7,511.4,2478,2824.3,180.1,66.6
0.043642,514.2,25.5,2465.0,166.5,2767.8,620.3,506.8,2480.1,2827.3,180.9,66.5
0.045642,515.4,27.5,2481.7,154.2,2805.8,639.0,501.9,2482.6,2830.5,181.8,66.2
0.047642,517.2,32.0,2508.9,147.3,2812.6,671.8,496.8,2485.6,2833.8,182.8,65.9
0.049642,518.0,39.7,2532.8,142.0,2802.8,739.8,491.7,2489.2,2837.3,183.8,65.4
0.051642,515.6,52.5,2547.3,143.1,2796.8,821.4,486.4,2493.4,2840.8,184.9,64.9
0.053642,509.0,71.0,2551.4,154.5,2815.9,863.8,481.1,2498.2,2844.4,186,64.5
0.055642,499.0,92.9,2546.9,165.3,2864.3,842.6,475.9,2503.6,2848,187.1,64.1
0.057642,485.2,112.6,2537.3,160.2,2926.3,772.1,470.8,2509.5,2851.5,188.3,63.8
0.059642,472.7,119.0,2527.9,140.5,2969.8,684.0,465.8,2516.1,2854.9,189.6,63.7
0.061642,466.8,114.7,2520.4,121.7,2983.8,605.5,461,2523.2,2858.2,190.9,63.7
0.063642,463.7,105.8,2514.5,110.3,2974.9,542.9,456.4,2530.8,2861.4,192.2,63.9
0.065642,456.2,96.3,2512.8,110.8,2949.7,508.7,452.1,2538.9,2864.3,193.5,64.1
0.067642,443.3,87.8,2516.6,125.2,2915.4,492.3,448.1,2547.2,2866.9,194.9,64.3
0.069642,428.9,80.3,2525.6,155.4,2876.2,468.5,444.5,2555.9,2869.2,196.3,64.6
0.071642,418.7,75.0,2540.4,196.3,2844.2,443.6,441.1,2564.6,2871.2,197.7,64.8
0.073642,414.2,71.6,2565.7,232.4,2821.1,452.4,438.2,2573.5,2872.9,199.1,65.1
0.075642,413.1,69.1,2604.8,236.6,2802.6,530.8,435.6,2582.2,2874.1,200.5,65.4
0.077642,414.5,67.7,2631.0,204.0,2806.8,651.5,433.3,2590.8,2874.9,201.9,65.7
0.079642,417.2,67.2,2638.5,189.0,2826.3,709.5,431.4,2599,2875.3,203.3,66
0.081642,420.2,66.8,2634.8,199.3,2849.7,672.5,429.9,2606.8,2875.2,204.7,66.3
0.083642,422.7,66.5,2621.7,213.9,2880.9,588.8,428.7,2614,2874.7,206.1,66.7
0.085642,424.7,66.8,2613.2,215.2,2904.4,527.9,427.8,2620.6,2873.7,207.5,67.1
0.087642,426.4,67.5,2616.7,214.4,2909.3,504.2,427.2,2626.5,2872.3,208.9,67.5
0.089642,427.9,67.1,2628.0,223.2,2897.1,499.1,427,2631.5,2870.4,210.2,67.9
0.091642,429.1,64.6,2642.5,253.9,2867.1,491.3,427,2635.6,2868.2,211.6,68.3
0.093642,429.9,61.0,2659.5,329.9,2818.9,453.2,427.3,2638.8,2865.5,212.9,68.6
0.095642,431.0,57.4,2641.3,507.4,2790.6,325.9,427.8,2641,2862.5,214.1,68.9
0.097642,432.3,54.3,2587.6,610.3,2796.2,272.2,428.6,2642.1,2859.1,215.4,69.2
0.099642,433.6,51.6,2556.6,667.9,2792.5,261.1,429.6,2642.3,2855.5,216.6,69.5
0.101642,434.9,49.5,2548.3,704.7,2782.4,270.9,430.7,2641.5,2851.7,217.9,69.7
0.103642,436.4,48.5,2568.1,703.3,2767.9,302.5,432,2639.8,2847.6,219.1,70
0.105642,438.2,48.5,2622.7,637.0,2744.5,371.8,433.5,2637.1,2843.4,220.2,70.2
0.107642,440.7,48.4,2632.5,370.5,2791.8,606.1,435.2,2633.7,2839.2,221.4,70.4
0.109642,444.2,47.5,2604.0,276.1,2884.9,631.7,436.9,2629.5,2834.9,222.5,70.7
0.111642,447.8,45.8,2599.0,230.4,2934.5,606.2,438.8,2624.7,2830.6,223.6,71
0.113642,450.7,43.5,2611.1,213.9,2944.6,584.1,440.9,2619.3,2826.4,224.7,71.2
0.115642,451.9,41.5,2633.9,212.1,2932.7,592.8,443,2613.5,2822.4,225.7,71.5
0.117642,451.7,39.8,2652.8,213.8,2919.0,621.5,445.2,2607.3,2818.5,226.8,71.8
0.119642,450.9,38.6,2659.2,220.9,2906.7,652.4,447.5,2600.9,2814.9,227.8,72
0.121642,450.2,37.5,2656.1,226.2,2894.8,699.7,449.9,2594.4,2811.5,228.8,72.3
0.123642,450.6,36.5,2644.7,212.9,2888.0,774.6,452.4,2587.8,2808.4,229.8,72.5
0.125642,452.1,35.5,2628.1,183.8,2881.0,857.2,454.9,2581.3,2805.6,230.7,72.8
0.127642,454.4,34.0,2612.5,152.6,2856.6,933.6,457.5,2574.9,2803.2,231.6,73
0.129642,457.2,32.0,2603.8,130.9,2813.3,995.4,460.1,2568.6,2801.1,232.6,73.3
0.131642,459.9,29.8,2601.5,121.3,2770.2,1046.2,462.7,2562.6,2799.4,233.5,73.5
0.133642,462.8,27.8,2602.6,124.9,2738.3,1083.0,465.4,2556.7,2798,234.3,73.8
0.135642,465.4,26.2,2603.4,145.2,2717.1,1080.2,468,2551.1,2797.1,235.2,74
0.137642,467.6,25.2,2600.1,178.7,2693.2,1025.0,470.6,2545.7,2796.4,236,74.2
0.139642,469.8,24.5,2592.7,222.5,2662.0,920.6,473.1,2540.5,2796.1,236.8,74.4
0.141642,472.1,24.3,2581.8,280.5,2638.3,775.2,475.5,2535.4,2796.1,237.6,74.5
0.143642,474.5,24.5,2545.9,356.6,2657.8,616.7,477.8,2530.4,2796.3,238.4,74.5
0.145642,477.0,25.2,2487.8,343.7,2718.4,584.4,480,2525.4,2796.8,239.1,74.5
0.147642,479.5,26.2,2453.8,299.0,2770.9,631.8,482.1,2520.3,2797.4,239.8,74.5
0.149642,481.7,27.6,2426.9,261.1,2822.1,657.2,484,2515.1,2798.3,240.5,74.5
0.151642,484.0,29.1,2404.0,225.5,2860.2,586.5,485.6,2509.5,2799.2,241.1,74.5
0.153642,485.8,30.6,2393.2,190.6,2870.9,459.4,487,2503.6,2800.2,241.7,74.4
0.155642,486.8,32.2,2393.2,162.8,2870.5,370.1,488.2,2497.3,2801.2,242.3,74.4
0.157642,487.0,34.4,2399.8,145.1,2869.3,333.1,489.1,2490.4,2802.1,242.9,74.4
0.159642,486.6,36.7,2410.0,137.4,2866.4,341.6,489.7,2482.8,2803.1,243.4,74.4
0.161642,485.9,38.9,2420.8,136.6,2856.1,375.1,490,2474.6,2803.9,243.9,74.4
0.163642,485.4,40.6,2428.5,142.6,2836.5,402.9,490.1,2465.6,2804.6,244.3,74.4
0.165642,485.3,41.7,2430.7,155.8,2813.8,400.2,489.8,2455.9,2805.1,244.7,74.5
0.167642,485.6,42.0,2427.2,170.5,2801.2,367.1,489.2,2445.4,2805.4,245.1,74.5
0.169642,486.0,41.5,2423.0,178.4,2797.7,328.1,488.3,2434.1,2805.6,245.5,74.7
0.171642,486.5,40.4,2422.8,176.2,2794.8,293.5,487.1,2422.1,2805.5,245.8,74.8
0.173642,486.8,39.0,2428.6,164.5,2789.3,271.5,485.7,2409.4,2805.3,246,74.9
0.175642,486.9,37.8,2437.8,150.1,2784.5,264.8,484,2396,2804.8,246.3,75.1
0.177642,486.7,37.0,2447.5,136.9,2784.9,271.0,482.1,2382.2,2804.1,246.5,75.2
0.179642,486.4,36.7,2454.0,127.2,2793.4,280.5,480,2368,2803.3,246.7,75.3
0.181642,486.0,36.9,2455.4,121.5,2805.8,281.8,477.8,2353.5,2802.2,246.8,75.3
0.183642,485.4,37.5,2451.9,119.1,2816.0,274.8,475.5,2338.9,2801.1,246.9,75.3
0.185642,484.4,38.7,2444.4,120.0,2817.8,267.1,473.1,2324.4,2799.8,247,75.2
0.187642,483.0,40.3,2434.0,122.9,2811.7,262.5,470.6,2310.2,2798.4,247.1,75.2
0.189642,481.0,42.2,2418.5,127.7,2802.1,258.2,468.2,2296.3,2797,247.1,75
0.191642,478.4,44.4,2396.7,133.8,2795.2,251.7,465.9,2283.1,2795.6,247.1,74.9
0.193642,475.3,46.6,2367.8,140.3,2793.8,243.0,463.7,2270.7,2794.3,247.1,74.7
0.195642,471.6,49.2,2327.4,145.5,2796.1,232.0,461.6,2259.3,2793,247.1,74.5
0.197642,467.4,52.2,2277.9,145.0,2800.4,221.8,459.7,2249,2791.7,247.1,74.3
0.199642,462.5,56.1,2225.0,138.4,2805.3,218.3,458,2240,2790.6,247.1,74.1
0.201642,457.0,60.9,2176.8,133.2,2807.5,228.9,456.6,2232.4,2789.7,247,73.7
0.203642,449.5,67.2,2131.0,138.2,2802.3,261.6,455.5,2226.4,2789,246.9,73.3
0.205642,440.0,74.2,2089.0,161.2,2785.4,316.5,454.7,2222.1,2788.4,246.9,72.8
0.207642,429.5,81.1,2049.4,205.5,2757.9,379.4,454.2,2219.4,2788.1,246.8,72.1
0.209642,418.3,89.1,2003.1,280.4,2719.1,438.7,454,2218.5,2788,246.7,71.3
