time,f1,b1,f2,b2,f3,b3,f1p,f2p,f3p,f0,intensity
0.026000,758.0,561.3,1611.9,282.3,2505.8,1217.8,744.4,1596,2530.6,196.3,70.4
0.028000,757.8,494.4,1605.9,236.9,2547.8,1077.3,743.8,1594.6,2537.1,196.3,71.6
0.030000,755.1,448.8,1600.1,200.5,2566.6,1005.6,742.6,1592.2,2547.9,196.4,72.4
0.032000,748.5,416.9,1593.0,170.7,2576.4,953.5,741,1589,2562.6,196.5,73.1
0.034000,739.5,387.0,1584.9,144.9,2584.9,880.4,738.7,1585,2580.8,196.6,73.5
0.036000,730.1,353.9,1577.1,123.2,2597.1,775.3,735.6,1580.4,2602.3,196.7,73.9
0.038000,721.7,321.3,1571.1,107.8,2615.0,670.7,731.6,1575.1,2626.4,196.8,74.1
0.040000,713.6,289.9,1566.5,96.8,2643.4,580.8,726.6,1569.3,2652.6,196.9,74.3
0.042000,705.2,259.9,1561.9,89.9,2683.8,500.1,720.5,1563.1,2680.5,197,74.4
0.044000,697.7,234.2,1556.0,87.7,2722.0,429.6,713.2,1556.4,2709.3,197.1,74.4
0.046000,691.4,213.3,1548.4,90.9,2752.0,369.5,704.5,1549.2,2738.4,197.2,74.3
0.048000,685.9,199.4,1539.5,101.6,2776.3,322.7,694.5,1541.5,2767.5,197.3,74.3
0.050000,680.4,194.2,1530.8,118.9,2798.3,292.7,683,1533.1,2795.8,197.5,74.2
0.052000,673.1,195.1,1522.0,140.0,2820.8,275.3,670.2,1523.8,2823,197.6,74
0.054000,661.6,198.1,1511.5,158.3,2842.0,270.6,656,1513.6,2848.6,197.7,74
0.056000,646.2,197.9,1497.6,165.0,2857.8,276.7,640.7,1502.1,2872.3,197.8,73.9
0.058000,627.4,191.8,1479.0,158.3,2871.1,283.1,624.2,1489.1,2893.9,198,73.8
0.060000,607.6,178.5,1457.6,141.2,2887.9,278.2,606.9,1474.4,2913.2,198.1,73.8
0.062000,588.7,157.4,1434.5,119.4,2911.5,259.9,588.9,1457.7,2930.1,198.2,73.8
0.064000,573.5,135.1,1413.2,101.5,2935.6,238.2,570.5,1439,2944.7,198.3,73.8
0.066000,560.5,117.9,1394.2,90.9,2955.9,222.4,551.9,1418,2957,198.4,73.8
0.068000,547.0,110.7,1376.7,90.2,2971.6,221.2,533.5,1394.8,2967.2,198.5,73.7
0.070000,531.8,116.2,1360.0,99.3,2984.0,238.5,515.4,1369.3,2975.6,198.6,73.6
0.072000,512.9,134.0,1342.3,114.6,2996.0,267.4,497.9,1341.9,2982.3,198.7,73.6
0.074000,488.3,159.0,1323.7,129.6,3006.0,291.4,481.4,1312.8,2987.7,198.7,73.5
0.076000,461.4,168.7,1305.1,136.7,3007.2,295.2,465.9,1282.3,2992.2,198.8,73.5
0.078000,437.9,150.3,1282.5,138.2,3000.8,287.1,451.8,1251.1,2996.1,198.8,73.5
0.080000,422.1,119.2,1254.9,144.8,2995.7,279.0,439.1,1219.8,2999.6,198.9,73.6
0.082000,414.0,97.6,1227.9,169.4,3002.3,274.5,427.9,1189.1,3003.2,198.9,73.7
0.084000,409.8,86.9,1200.9,224.5,3020.5,264.6,418.3,1159.9,3007.1,198.9,73.9
0.086000,407.4,83.2,1168.7,308.2,3036.7,240.7,410.3,1132.9,3011.4,198.8,74.1
0.088000,405.1,80.4,1136.1,362.8,3039.9,213.7,403.9,1109.2,3016.5,198.7,74.3
0.090000,401.2,73.0,1110.7,362.0,3037.0,194.7,398.9,1089.5,3022.3,198.6,74.5
0.092000,396.3,61.8,1089.5,339.3,3035.5,187.3,395.3,1074.7,3029,198.5,74.6
0.094000,392.3,52.7,1066.4,333.9,3037.6,187.4,392.9,1065.4,3036.5,198.2,74.7
0.096000,390.3,48.7,1037.9,364.9,3041.4,189.7,391.5,1062.3,3044.8,198,74.7
0.098000,390.9,49.8,1014.6,445.3,3046.1,199.6,390.9,1065.8,3053.7,197.6,74.5
0.100000,393.6,53.1,1024.1,586.8,3052.8,231.1,391,1076.2,3063.1,197.1,74.4
0.102000,396.2,54.2,1079.5,738.4,3057.6,281.4,391.5,1093.4,3072.6,196.6,74.1
0.104000,397.3,53.2,1150.5,839.5,3056.6,331.5,392.2,1117.4,3082.1,195.9,73.8
0.106000,397.2,51.9,1200.9,889.9,3053.9,358.8,392.9,1147.6,3091.2,195.1,73.4
0.108000,396.2,51.3,1222.9,916.6,3057.6,351.4,393.6,1183.5,3099.6,194.2,72.9
0.110000,394.3,51.1,1217.7,936.1,3067.6,323.6,394.1,1224.2,3107,193.1,72.4
0.112000,391.5,51.1,1176.4,955.8,3082.7,297.7,394.2,1268.8,3113.2,191.8,71.9
0.114000,389.2,51.4,1130.1,982.2,3102.7,288.5,394,1315.9,3117.8,190.4,71.5
0.116000,388.4,52.5,1111.7,1064.3,3129.1,296.0,393.4,1364.5,3120.5,188.7,71
0.118000,389.3,54.3,1145.6,1253.2,3159.5,326.9,392.4,1413,3121.2,186.8,70.7
0.120000,390.9,55.9,1273.2,1484.7,3179.1,388.6,391.1,1460.1,3119.7,184.6,70.3
0.122000,392.2,56.5,1443.6,1636.8,3172.7,500.4,389.5,1504.4,3115.9,182.3,70
0.124000,392.2,56.0,1590.0,1871.2,3124.9,706.0,387.7,1544.8,3109.8,179.6,69.7
0.126000,390.7,54.4,1759.1,2351.3,3016.3,1056.2,385.8,1579.9,3101.3,176.8,69.4
0.128000,388.2,52.2,2280.6,3378.7,2677.7,1542.1,383.9,1608.9,3090.5,173.6,69.1
0.130000,385.2,49.3,2240.8,1422.4,3145.2,3157.0,382,1631,3077.5,170.3,68.8
0.132000,382.2,46.3,1972.6,1134.6,3283.7,1829.6,380.4,1645.7,3062.6,166.6,68.5
0.134000,378.9,43.7,1844.5,941.1,3290.4,1263.5,379,1652.7,3046,162.8,68.1
0.136000,375.9,42.4,1759.3,918.3,3295.9,1025.5,377.9,1652.1,3027.9,158.7,67.7
0.138000,374.7,44.2,1668.3,1059.7,3296.4,938.4,377.2,1644.2,3008.7,154.5,67.3
0.140000,376.4,51.1,1568.0,1334.1,3255.6,945.6,376.9,1629.6,2988.8,150.1,66.9
0.142000,379.1,61.6,1403.9,1818.6,3188.5,1125.3,377,1609.1,2968.5,145.5,66.4
0.144000,378.9,70.5,1090.0,1925.2,2666.7,1525.1,377.4,1583.8,2948.2,140.8,66
0.146000,373.3,69.8,1029.1,1740.0,2503.0,980.0,378.2,1554.9,2928.3,136.1,65.6
0.148000,366.1,59.5,1081.5,1496.2,2463.6,720.5,379.2,1523.8,2909.3,0,65.2
0.150000,364.5,48.2,1122.2,1253.2,2468.6,572.7,380.3,1491.8,2891.5,124.2,64.9
0.152000,369.7,44.2,1098.9,1154.5,2496.1,521.0,381.6,1460.5,2875.2,121.8,64.6
0.154000,378.2,45.9,1048.7,1252.1,2546.6,561.4,382.8,1431.3,2860.8,117.2,64.3
0.156000,389.0,50.4,975.4,1670.2,2616.6,725.1,384,1405.4,2848.7,112.6,63.9
0.158000,398.7,55.2,627.5,2830.7,2621.7,1112.9,385,1383.9,2838.9,108.2,63.6
0.160000,401.8,60.1,2382.0,1291.9,3329.4,676.4,385.8,1367.9,2831.8,103.9,63.4
0.162000,393.1,61.9,2248.8,1224.7,3350.5,533.8,386.3,1358,2827.5,99.9,63.4
0.164000,383.6,57.3,2224.4,1257.6,3411.8,539.1,386.4,1354.7,2826.1,96,63.6
