time,f1,b1,f2,b2,f3,b3,f1p,f2p,f3p,f0,intensity
0.025726,730.1,96.9,2216.3,107.1,2695.8,88.9,747.8,2221.7,2709.2,0,63.3
0.027726,732.3,80.7,2207.2,96.0,2692.1,79.6,746.4,2217.3,2705.4,0,64.4
0.029726,734.1,66.6,2200.8,88.6,2689.2,75.3,744.2,2210.3,2699.2,0,64.9
0.031726,736.5,52.9,2195.9,82.4,2685.9,72.0,741.2,2201.3,2691,0,65
0.033726,739.5,42.4,2193.0,79.9,2683.0,71.0,737.2,2190.6,2681.1,0,64.7
0.035726,743.0,38.1,2191.4,89.3,2680.9,79.8,732.5,2179.2,2670,0,64.1
0.037726,744.4,49.4,2188.3,135.6,2679.3,122.2,726.9,2167.7,2658.2,0,63.4
0.039726,737.7,81.9,2182.1,219.7,2673.6,206.6,720.6,2156.9,2646.3,0,62.7
0.041726,723.2,105.3,2172.6,277.8,2659.6,281.4,713.4,2147.7,2634.7,0,62.5
0.043726,710.8,100.7,2158.7,304.9,2635.8,320.4,705.5,2140.5,2624.1,0,62.5
0.045726,699.2,90.2,2134.3,338.5,2600.1,330.8,696.8,2136.1,2614.7,0,62.8
0.047726,687.7,82.1,2097.9,364.8,2576.7,300.3,687.3,2134.8,2607,0,63.3
0.049726,676.7,73.7,2068.7,355.0,2579.7,252.2,677.1,2136.8,2601.3,0,63.8
0.051726,666.9,66.1,2076.6,326.9,2593.5,225.5,666,2142.2,2597.6,0,64.2
0.053726,655.0,61.2,2116.2,300.5,2604.9,228.3,654.2,2150.8,2596,0,64.7
0.055726,638.6,57.9,2168.9,272.2,2610.0,248.9,641.6,2162.3,2596.4,0,65.2
0.057726,623.6,57.6,2213.5,254.1,2605.6,273.7,628.1,2176.1,2598.7,0,65.7
0.059726,612.6,62.9,2253.3,257.5,2594.3,306.3,613.9,2191.8,2602.6,175.8,66.1
0.061726,603.3,73.4,2286.6,276.1,2585.3,338.7,598.9,2208.5,2607.7,175.7,66.5
0.063726,590.4,86.3,2303.6,298.4,2589.7,345.8,583.1,2225.6,2613.6,175.6,66.7
0.065726,568.4,100.9,2295.4,328.5,2609.3,311.2,566.6,2242.2,2620,175.5,66.9
0.067726,540.1,116.0,2264.6,359.9,2632.9,256.1,549.6,2257.7,2626.3,175.4,66.9
0.069726,510.4,139.1,2224.5,398.6,2653.6,210.1,532,2271.6,2632.3,175.3,67
0.071726,486.9,182.0,2190.8,463.1,2667.6,186.7,514,2283.2,2637.5,175.2,67.1
0.073726,468.0,250.4,2178.5,565.6,2672.5,175.8,495.7,2292.3,2641.8,175.1,67.2
0.075726,459.5,298.7,2224.1,668.2,2661.9,174.5,477.2,2298.7,2644.8,174.9,67.5
0.077726,462.2,285.7,2298.1,701.9,2644.2,176.7,458.8,2302.3,2646.5,174.8,67.8
0.079726,464.3,248.1,2341.3,686.9,2629.3,173.4,440.7,2303.5,2646.8,174.6,68.1
0.081726,459.5,222.4,2342.8,665.8,2621.7,165.0,422.9,2302.4,2645.8,174.4,68.3
0.083726,444.3,213.6,2325.9,645.6,2619.2,157.3,405.8,2299.6,2643.7,174.3,68.4
0.085726,415.7,220.4,2306.4,630.1,2622.3,151.5,389.4,2295.6,2640.7,174.1,68.4
0.087726,379.4,229.7,2291.2,614.7,2631.8,142.1,374,2291,2637,173.9,68.3
0.089726,347.0,229.5,2286.0,601.5,2642.7,129.0,359.7,2286.4,2632.9,173.6,68.2
0.091726,331.5,222.2,2292.7,602.9,2646.6,122.9,346.6,2282.4,2628.8,173.4,68.1
0.093726,328.3,218.9,2305.4,627.5,2641.3,128.3,334.9,2279.5,2624.9,173.1,68
0.095726,327.8,224.8,2320.1,675.2,2628.8,140.8,324.7,2278.1,2621.6,172.9,67.9
0.097726,321.0,235.1,2331.6,731.4,2614.1,148.0,315.9,2278.6,2619.2,172.6,67.8
0.099726,306.8,235.9,2315.8,752.1,2608.0,137.5,308.6,2281.2,2617.7,172.3,67.8
0.101726,292.7,221.6,2279.1,730.2,2609.9,117.4,302.8,2285.7,2617.5,172,67.8
0.103726,282.9,201.4,2255.9,717.8,2614.6,102.0,298.4,2292.2,2618.5,171.7,67.7
0.105726,279.4,185.6,2258.4,751.5,2621.1,98.0,295.4,2300.3,2620.8,171.4,67.7
0.107726,280.5,175.1,2272.3,832.1,2629.1,100.6,293.5,2309.7,2624.2,171.1,67.7
0.109726,284.3,171.5,2283.2,941.4,2635.4,106.7,292.7,2319.9,2628.8,170.7,67.7
0.111726,289.9,172.5,2294.7,1063.7,2639.6,120.1,292.9,2330.3,2634.2,170.4,67.7
0.113726,295.5,171.9,2317.0,1153.7,2645.7,144.6,293.9,2340.5,2640.4,170,67.6
0.115726,300.3,165.2,2341.1,1195.3,2657.1,168.5,295.5,2349.9,2647.1,169.7,67.6
0.117726,305.2,154.0,2355.8,1233.7,2666.9,174.6,297.5,2358.1,2654.1,169.3,67.7
0.119726,309.3,143.6,2369.2,1291.9,2664.4,164.6,299.9,2364.7,2661.1,169,67.7
0.121726,311.9,135.1,2378.5,1372.3,2653.9,149.9,302.5,2369.5,2668,168.6,67.7
0.123726,314.0,128.5,2377.4,1451.7,2645.6,138.8,305.2,2372.3,2674.6,168.3,67.8
0.125726,316.0,121.1,2379.2,1431.2,2646.7,139.0,307.8,2373.1,2680.6,167.9,67.8
0.127726,317.4,108.7,2390.0,1225.0,2661.4,154.2,310.4,2372.1,2686.1,167.6,67.8
0.129726,318.0,95.7,2399.8,954.2,2688.2,175.8,312.7,2369.5,2690.9,167.2,67.9
0.131726,318.2,87.2,2410.5,745.7,2718.4,190.5,314.8,2365.7,2695,166.9,67.9
0.133726,318.3,84.9,2423.3,631.5,2736.6,196.5,316.7,2361,2698.5,166.6,67.9
0.135726,318.9,85.6,2428.8,563.5,2741.5,197.2,318.3,2356,2701.3,166.3,67.9
0.137726,319.7,86.6,2417.4,535.1,2734.7,190.3,319.6,2351.1,2703.4,166,68
0.139726,318.9,86.1,2387.1,543.6,2721.3,178.1,320.6,2346.8,2705.1,165.8,68
0.141726,316.6,84.2,2330.5,581.5,2703.4,165.4,321.3,2343.4,2706.2,165.5,68
0.143726,313.2,80.6,2254.7,630.7,2682.3,161.6,321.7,2341.2,2706.8,165.3,68
0.145726,308.1,74.3,2173.4,698.7,2652.7,175.1,321.9,2340.5,2707.1,165,68.1
