time,f1,b1,f2,b2,f3,b3,f1p,f2p,f3p,f0,intensity
0.025828,650.0,116.6,2303.9,225.6,2872.5,288.4,626.8,2322.7,2862,170.3,72.3
0.027828,637.7,115.4,2333.5,228.7,2882.8,312.9,622.1,2330.7,2863.3,170.3,72.2
0.029828,623.7,116.3,2362.9,217.8,2893.6,327.9,614.7,2343.5,2865.3,170.3,72.1
0.031828,607.9,119.3,2378.7,210.9,2893.5,328.7,604.7,2360.7,2868.1,170.3,72
0.033828,588.1,121.9,2383.8,223.1,2878.7,327.7,592.7,2381.6,2871.5,170.3,71.9
0.035828,567.3,121.3,2390.3,251.1,2858.8,327.7,579,2405.3,2875.5,170.2,71.9
0.037828,546.7,117.5,2409.7,289.2,2841.6,328.7,564.4,2430.8,2879.8,170.2,71.9
0.039828,529.1,111.3,2445.2,322.7,2833.3,337.4,549.3,2457.1,2884.5,170.2,71.9
0.041828,515.9,103.0,2488.6,334.5,2837.4,364.2,534.3,2483.3,2889.2,170.2,71.9
0.043828,506.9,93.6,2523.9,321.5,2859.6,405.4,519.9,2508.5,2893.8,170.1,72
0.045828,500.1,84.0,2542.7,300.0,2902.4,425.2,506.6,2531.8,2898.3,170.1,72.1
0.047828,494.5,75.7,2549.7,295.7,2939.3,398.6,494.7,2552.6,2902.3,170.1,72.2
0.049828,488.9,68.8,2560.0,313.3,2951.5,357.2,484.4,2570.5,2905.8,170.1,72.3
0.051828,483.6,63.6,2577.8,338.4,2943.9,322.7,475.8,2585.1,2908.7,170.1,72.4
0.053828,479.1,59.6,2597.6,353.3,2927.7,292.7,469,2596.4,2910.9,170.1,72.5
0.055828,475.5,57.0,2612.9,352.5,2911.8,270.6,463.7,2604.5,2912.2,170.1,72.5
0.057828,471.7,55.6,2622.8,346.6,2899.7,254.7,459.9,2609.7,2912.6,170.1,72.5
0.059828,467.7,55.5,2626.4,344.2,2894.1,240.2,457.2,2612.5,2912.1,170.1,72.4
0.061828,463.5,56.5,2624.1,350.1,2894.0,223.0,455.3,2613.5,2910.7,170.1,72.3
0.063828,459.1,58.3,2615.2,366.3,2897.5,202.1,453.8,2613.3,2908.5,170.1,72.2
0.065828,454.4,60.2,2603.4,381.9,2902.9,182.6,452.4,2612.6,2905.5,170.1,72
0.067828,449.2,62.1,2595.1,382.1,2910.9,170.5,450.8,2612.1,2901.9,170.2,71.8
0.069828,443.6,64.0,2594.7,366.7,2918.1,168.7,448.7,2612.4,2897.7,170.2,71.7
0.071828,438.0,65.6,2601.0,350.8,2918.4,173.9,445.8,2613.8,2893.1,170.3,71.5
0.073828,433.1,66.8,2610.7,345.9,2908.6,183.0,442.1,2616.9,2888.3,170.3,71.3
0.075828,428.3,67.3,2622.2,359.1,2888.4,193.8,437.6,2621.6,2883.3,170.4,71.2
0.077828,423.5,67.1,2631.5,387.8,2865.8,201.4,432.1,2628,2878.3,170.5,71
0.079828,419.0,67.4,2635.2,408.9,2851.4,207.2,425.9,2635.8,2873.4,170.6,70.9
0.081828,414.7,68.5,2639.7,407.7,2845.2,221.4,419,2644.6,2868.6,170.7,70.7
0.083828,410.3,70.1,2651.0,388.1,2842.6,242.3,411.8,2653.8,2864,170.8,70.6
0.085828,405.6,71.7,2666.9,363.3,2844.3,255.2,404.4,2662.6,2859.5,170.9,70.5
0.087828,400.3,72.3,2686.4,345.9,2848.0,258.5,397.1,2670.1,2855.2,171.1,70.4
0.089828,394.9,71.7,2704.9,338.5,2849.6,256.8,390,2675.3,2850.9,171.2,70.3
0.091828,389.4,71.1,2711.3,348.3,2847.6,239.3,383.5,2677.5,2846.5,171.3,70.3
0.093828,383.6,70.9,2696.6,362.6,2846.7,212.1,377.6,2675.5,2842,171.5,70.2
0.095828,377.9,70.2,2668.1,356.4,2848.7,194.0,372.5,2668.5,2837,171.6,70.1
0.097828,373.0,69.1,2639.0,333.1,2850.2,190.0,368.1,2655.9,2831.5,171.8,69.9
0.099828,368.5,67.6,2614.7,308.8,2846.1,198.0,364.6,2637,2825.3,171.9,69.8
0.101828,364.7,65.7,2592.0,301.2,2832.0,201.2,361.8,2611.6,2818.2,172,69.7
0.103828,361.5,64.3,2557.8,300.5,2816.9,180.9,359.7,2579.6,2810.2,172.2,69.6
0.105828,358.7,63.1,2512.6,279.2,2808.7,154.9,358.1,2541,2801.1,172.3,69.5
0.107828,355.9,60.8,2472.6,250.4,2800.2,144.5,356.9,2496.4,2791,172.4,69.5
0.109828,353.0,56.4,2435.1,238.2,2782.1,144.6,356,2446.3,2779.9,172.5,69.4
0.111828,350.4,51.4,2390.5,238.4,2758.6,138.1,355.1,2391.8,2767.9,172.6,69.4
0.113828,348.7,47.6,2333.8,224.7,2740.0,119.0,354.2,2333.8,2755.2,172.7,69.4
0.115828,347.7,44.8,2281.7,199.3,2730.3,103.1,353.2,2273.8,2741.9,172.8,69.4
0.117828,347.0,41.5,2238.3,188.7,2722.2,100.2,352,2213.1,2728.4,172.8,69.4
0.119828,346.4,37.6,2195.4,201.2,2710.0,109.4,350.7,2153.3,2715,172.9,69.4
0.121828,345.9,33.5,2139.2,228.5,2691.1,128.4,349.3,2095.8,2702,172.9,69.3
0.123828,345.8,30.0,2075.4,254.1,2668.7,155.8,347.7,2042.3,2689.8,173,69.2
0.125828,346.1,27.4,2012.4,275.9,2647.8,196.3,346.2,1994.2,2678.8,173,68.9
0.127828,346.3,25.8,1956.3,295.5,2637.8,250.3,344.7,1952.9,2669.2,173,68.6
0.129828,346.6,25.8,1907.9,319.8,2647.5,319.4,343.5,1919.4,2661.4,173,68.2
0.131828,346.5,27.4,1873.4,371.9,2671.8,393.1,342.5,1894.8,2655.6,173,67.6
0.133828,346.1,31.2,1849.3,488.6,2692.3,464.0,341.9,1879.8,2652.1,172.9,67
0.135828,345.8,37.2,1837.1,694.0,2700.6,532.5,341.7,1874.7,2650.9,172.9,66.2
