time,f1,b1,f2,b2,f3,b3,f1p,f2p,f3p,f0,intensity
0.025857,365.5,103.5,2601.9,327.9,2787.9,342.4,352.9,2610.1,2834.4,137.3,62.2
0.027857,362.2,111.3,2607.5,306.8,2810.7,365.2,352.5,2610.6,2840.9,137.6,63
0.029857,359.7,111.5,2609.1,276.9,2832.2,387.9,351.7,2611.4,2851.8,138,63.7
0.031857,356.3,108.8,2609.8,255.5,2846.3,419.7,350.7,2612.6,2866.9,138.3,64.2
0.033857,350.8,107.5,2612.8,243.5,2856.4,486.4,349.3,2614.3,2886.2,138.7,64.5
0.035857,343.9,104.9,2616.9,230.9,2879.1,598.6,347.6,2616.4,2909.5,139,64.8
0.037857,337.6,97.8,2619.3,219.4,2930.1,706.2,345.6,2619,2936.7,139.3,65
0.039857,333.1,89.5,2623.1,219.2,2994.1,741.3,343.2,2622.1,2967.3,139.6,65.2
0.041857,330.3,83.9,2629.1,233.1,3044.7,711.6,340.5,2625.6,3001.1,139.9,65.3
0.043857,328.4,80.2,2635.6,254.2,3082.3,667.0,337.4,2629.6,3037.7,140.1,65.5
0.045857,326.7,75.7,2641.7,269.9,3127.1,623.3,334.1,2633.8,3076.5,140.3,65.6
0.047857,324.3,69.8,2647.6,273.8,3190.1,565.6,330.6,2638.2,3117,140.5,65.7
0.049857,321.5,64.1,2652.1,267.7,3249.0,480.3,326.8,2642.6,3158.4,140.7,65.9
0.051857,318.9,62.3,2651.9,252.0,3273.0,393.5,323,2646.7,3199.9,140.8,66.1
0.053857,316.9,67.4,2649.9,227.4,3278.0,326.0,319.1,2650.3,3240.9,140.9,66.3
0.055857,315.3,77.6,2650.2,203.0,3281.6,282.0,315.3,2653.2,3280.3,140.9,66.4
0.057857,313.7,85.5,2650.7,184.9,3286.0,258.3,311.7,2655,3317.4,140.9,66.5
0.059857,312.3,87.9,2648.8,175.5,3292.2,250.2,308.3,2655.6,3351.4,140.9,66.4
0.061857,311.2,89.0,2644.0,178.1,3303.7,257.0,305.2,2654.8,3381.4,140.9,66.4
0.063857,310.3,91.2,2639.3,191.3,3325.9,271.0,302.6,2652.4,3406.8,140.8,66.2
0.065857,309.5,91.1,2639.8,202.9,3356.5,272.3,300.5,2648.4,3426.9,140.7,66
0.067857,309.0,86.6,2643.6,205.7,3385.4,269.9,298.9,2642.7,3441.3,140.6,65.8
0.069857,308.0,80.6,2644.0,209.5,3417.9,297.7,297.8,2635.6,3449.7,140.5,65.5
0.071857,305.0,76.8,2640.4,226.7,3474.4,374.7,297.3,2627.2,3452.1,140.4,65.3
0.073857,300.4,74.3,2638.1,265.6,3563.8,463.2,297.3,2617.7,3448.4,140.3,65.1
0.075857,297.4,69.0,2638.5,341.5,3360.9,1887.2,297.7,2607.7,3439,140.2,65
0.077857,296.9,60.7,2628.7,472.5,3313.6,1651.7,298.5,2597.4,3424.3,140.1,64.9
0.079857,296.5,52.8,2575.3,634.0,3372.5,1182.1,299.6,2587.5,3404.9,140,65
0.081857,295.0,46.1,2478.2,707.4,3341.6,671.2,300.9,2578.4,3381.6,139.9,65.1
0.083857,294.7,41.4,2447.7,686.5,3353.6,506.5,302.3,2570.6,3355.3,139.8,65.1
0.085857,296.4,39.3,2504.5,639.8,3380.2,435.3,303.6,2564.6,3327.1,139.8,65.2
0.087857,298.2,40.7,2588.8,555.0,3404.5,381.1,304.9,2560.8,3298,139.7,65.2
0.089857,299.2,44.5,2640.8,483.0,3417.0,330.0,305.9,2559.7,3269,139.7,65.1
0.091857,300.0,46.8,2661.2,450.9,3428.4,301.9,306.7,2561.3,3241.3,139.7,65
0.093857,300.7,45.1,2659.1,434.3,3451.8,303.5,307.3,2565.8,3215.7,139.8,64.9
0.095857,301.6,42.8,2645.2,415.1,3324.4,2829.1,307.5,2573.1,3193.3,139.8,64.8
0.097857,303.0,43.5,2640.6,416.6,3216.6,2407.8,307.4,2583,3174.8,139.9,64.7
0.099857,305.0,47.0,2672.9,491.6,3043.3,2012.1,307.1,2595.3,3160.8,140,64.7
0.101857,306.9,49.9,2676.1,1576.4,2827.0,595.0,306.7,2609.2,3151.7,140.1,64.8
0.103857,309.1,51.0,2407.4,1584.0,2946.5,415.7,306.3,2624.4,3147.9,140.2,64.8
0.105857,312.8,50.1,2338.8,1751.8,2984.8,326.1,306.1,2640,3149.3,140.3,65
0.107857,316.8,47.5,2407.7,2118.3,3000.2,314.4,306,2655.2,3155.8,140.5,65.1
0.109857,319.5,44.9,2600.9,2608.0,2998.2,351.2,306.5,2669.4,3167.3,140.6,65.4
0.111857,321.3,43.0,2893.8,3095.1,2976.2,422.0,307.5,2681.6,3183.3,140.8,65.6
0.113857,322.7,41.2,2913.1,488.2,3456.3,3947.8,309.2,2691.2,3203.2,140.9,66
0.115857,323.1,38.8,2811.2,434.2,3491.4,365.2,311.7,2697.5,3226.5,141.1,66.3
0.117857,322.9,36.9,2737.2,302.7,3460.2,307.5,315.1,2700.1,3252.3,141.3,66.7
0.119857,322.8,35.7,2703.0,223.4,3418.9,306.4,319.5,2698.5,3280.1,141.5,67.1
0.121857,323.3,35.1,2686.3,203.9,3372.3,306.3,324.9,2692.6,3309,141.7,67.4
0.123857,324.3,35.5,2672.0,220.3,3346.5,290.6,331.2,2682.4,3338.3,141.9,67.7
0.125857,326.9,37.4,2649.1,262.4,3339.2,283.3,338.3,2668.1,3367.4,142,68
0.127857,331.9,40.2,2613.8,304.5,3342.0,295.6,346.1,2650.3,3395.7,142.2,68.2
0.129857,338.6,42.6,2582.7,314.4,3357.5,350.4,354.5,2629.4,3422.7,142.4,68.3
0.131857,346.2,43.9,2571.2,303.2,3390.0,475.3,363.2,2606.3,3447.9,142.5,68.4
0.133857,355.8,43.8,2568.6,283.8,3448.7,642.1,371.9,2581.8,3470.9,142.7,68.4
0.135857,367.3,43.0,2560.8,250.8,3498.8,4906.3,380.4,2557,3491.6,142.9,68.3
0.137857,379.8,42.2,2545.2,210.2,3513.7,617.0,388.5,2532.8,3509.6,143,68.3
0.139857,392.7,40.6,2521.7,177.3,3526.7,517.4,395.9,2510.3,3525,143.2,68.2
0.141857,405.3,38.3,2490.6,153.7,3546.7,431.0,402.3,2490.4,3537.7,143.3,68
0.143857,416.1,36.5,2462.5,132.5,3565.0,368.3,407.5,2473.9,3547.5,143.4,67.9
0.145857,424.3,35.3,2452.1,113.9,3570.4,350.4,411.4,2461.6,3554.5,143.5,67.7
0.147857,429.5,34.6,2462.7,102.9,3554.1,394.8,413.8,2454,3558.7,143.6,67.4
0.149857,433.3,35.8,2482.8,100.4,3512.0,496.3,414.6,2451.4,3560.1,143.7,67.1
