time,f1,b1,f2,b2,f3,b3,f1p,f2p,f3p,f0,intensity
0.025850,567.7,284.3,1311.1,251.4,2790.7,387.5,606,1330.7,2815.6,215.2,68.2
0.027850,587.3,247.7,1324.5,233.7,2803.5,347.9,606.5,1334.3,2818,214.8,69.5
0.029850,601.0,204.1,1332.5,214.2,2810.9,324.3,607.2,1340.1,2821.9,214.4,70.4
0.031850,610.5,167.6,1339.0,201.2,2821.4,302.6,608.1,1347.8,2827.4,213.9,71.2
0.033850,616.9,140.4,1346.4,197.8,2835.8,279.9,609,1357.3,2834.2,213.4,71.8
0.035850,621.4,121.1,1357.0,207.0,2851.3,260.4,609.9,1367.9,2842.2,212.9,72.2
0.037850,624.7,107.5,1373.2,231.2,2865.5,250.9,610.7,1379.3,2851.4,212.3,72.5
0.039850,626.7,97.3,1397.0,269.4,2878.4,255.5,611.1,1391.1,2861.5,211.8,72.6
0.041850,626.9,88.8,1427.8,313.6,2891.6,274.5,611,1402.7,2872.4,211.2,72.7
0.043850,624.8,81.3,1460.1,348.1,2906.0,304.1,610.3,1413.6,2883.9,210.5,72.6
0.045850,620.7,76.0,1481.1,353.3,2917.6,335.1,608.9,1423.5,2895.8,209.9,72.5
0.047850,614.9,74.0,1477.9,322.3,2919.1,353.9,606.6,1431.9,2907.9,209.2,72.3
0.049850,607.6,74.4,1456.6,273.2,2911.8,352.3,603.4,1438.6,2920.1,208.5,72.1
0.051850,598.6,74.9,1433.1,227.8,2908.3,335.7,599.2,1443.3,2932.1,207.8,71.8
0.053850,587.9,73.6,1415.7,192.0,2916.5,314.7,593.9,1445.9,2943.9,207.1,71.5
0.055850,576.9,69.7,1407.1,163.3,2935.1,292.1,587.6,1446.3,2955.2,206.4,71.1
0.057850,567.4,64.5,1407.6,141.8,2957.6,266.2,580.2,1444.7,2966.1,205.7,70.8
0.059850,560.2,60.0,1412.9,129.8,2976.5,241.3,571.9,1441.1,2976.3,204.9,70.5
0.061850,554.0,56.8,1418.0,126.8,2991.0,226.8,562.7,1435.7,2985.8,204.2,70.2
0.063850,547.5,55.1,1419.9,129.5,3004.4,226.8,552.7,1428.8,2994.6,203.4,70
0.065850,539.7,55.1,1417.8,134.2,3018.1,236.3,542.1,1420.7,3002.6,202.7,69.7
0.067850,530.7,57.3,1412.1,140.4,3028.8,243.9,531.1,1411.8,3009.8,201.9,69.5
0.069850,521.1,61.7,1403.6,151.3,3033.2,242.5,519.7,1402.2,3016.3,201.1,69.3
0.071850,511.2,67.2,1392.5,169.0,3032.4,237.0,508.3,1392.4,3022.1,200.4,69.1
0.073850,500.8,72.4,1378.5,188.5,3028.2,235.2,496.8,1382.5,3027.2,199.6,69
0.075850,489.5,75.4,1363.1,193.8,3021.3,240.3,485.6,1372.8,3031.8,198.8,68.9
0.077850,477.0,74.8,1353.3,171.1,3013.7,253.3,474.6,1363.4,3035.8,198,68.7
0.079850,464.1,71.4,1352.9,133.0,3009.2,275.4,464.2,1354.4,3039.5,197.2,68.6
0.081850,451.8,67.4,1357.9,100.6,3011.4,304.4,454.3,1345.8,3042.8,196.3,68.5
0.083850,441.1,63.5,1363.3,81.0,3022.2,335.9,445.1,1337.4,3046,195.5,68.4
0.085850,433.0,60.0,1366.7,73.3,3039.2,365.9,436.6,1329.2,3048.9,194.6,68.3
0.087850,427.7,57.4,1367.2,77.0,3057.4,387.4,428.9,1320.8,3051.8,193.7,68.2
0.089850,424.2,55.8,1364.1,94.2,3073.3,390.8,422,1312.1,3054.8,192.8,68.1
0.091850,420.9,55.4,1354.3,130.7,3085.3,374.3,415.8,1302.8,3057.7,191.9,68
0.093850,416.9,56.2,1330.3,193.2,3091.1,343.9,410.3,1292.6,3060.8,190.9,67.9
0.095850,411.7,58.3,1281.5,272.8,3087.9,300.7,405.4,1281.2,3064,189.8,67.8
0.097850,405.6,60.7,1218.9,322.5,3079.1,253.1,401.2,1268.5,3067.2,188.8,67.7
0.099850,399.6,61.9,1181.0,322.0,3073.9,224.4,397.5,1254.3,3070.6,187.6,67.6
0.101850,394.7,62.3,1170.5,310.0,3074.2,226.5,394.3,1238.5,3074.1,186.4,67.6
0.103850,390.6,61.6,1167.4,302.4,3078.2,254.8,391.4,1221.3,3077.5,185.1,67.5
0.105850,386.8,58.5,1163.1,291.3,3082.7,299.0,388.8,1202.7,3080.9,183.7,67.5
0.107850,383.7,53.2,1158.6,272.4,3081.5,343.1,386.6,1183,3084.2,182.2,67.5
0.109850,381.5,47.3,1155.5,254.1,3069.7,379.5,384.5,1162.7,3087.3,180.7,67.4
0.111850,380.1,43.0,1149.2,247.6,3055.3,424.2,382.6,1142.2,3090.1,179,67.4
0.113850,379.4,41.4,1132.8,258.0,3053.5,502.3,380.9,1122.2,3092.6,177.2,67.3
0.115850,378.9,42.3,1105.1,281.5,3075.8,622.3,379.4,1103.2,3094.5,175.3,67.2
0.117850,378.4,43.5,1076.5,305.4,3118.7,741.7,378.1,1086.1,3095.9,173.3,67
0.119850,377.6,43.4,1065.3,320.4,3148.9,735.5,377,1071.6,3096.7,171.1,66.9
0.121850,376.5,42.4,1078.8,330.1,3134.7,573.7,376.1,1060.3,3096.8,168.8,66.7
0.123850,374.9,41.1,1101.2,335.8,3106.2,430.4,375.6,1053.1,3096.2,166.4,66.6
0.125850,372.8,39.6,1113.8,339.7,3088.4,355.4,375.4,1050.6,3094.8,163.8,66.4
0.127850,371.4,39.5,1115.3,352.9,3078.7,321.2,375.7,1053.2,3092.5,161.1,66.3
0.129850,371.4,42.2,1113.9,378.9,3068.1,311.4,376.3,1061.4,3089.6,158.2,66.1
0.131850,372.8,47.6,1116.0,407.2,3053.3,310.3,377.5,1075.3,3085.8,155.3,65.9
0.133850,375.2,54.1,1123.8,427.0,3044.9,292.3,379.1,1095,3081.3,152.2,65.7
0.135850,377.9,58.7,1136.6,423.9,3049.1,252.4,381.2,1120.5,3076.2,149.1,65.4
0.137850,380.7,58.1,1150.7,389.4,3060.1,202.8,383.8,1151.2,3070.6,145.9,65
0.139850,385.0,52.9,1163.4,345.8,3071.4,156.4,386.9,1186.7,3064.4,142.6,64.7
0.141850,392.7,46.6,1176.5,318.6,3079.1,123.1,390.3,1226.2,3057.9,139.2,64.3
0.143850,404.6,41.6,1199.0,310.9,3081.9,102.5,394,1268.8,3051.3,0,63.8
0.145850,417.7,37.5,1237.2,305.9,3077.9,88.8,398,1313.5,3044.5,0,63.4
0.147850,425.2,34.2,1284.3,300.5,3067.8,79.7,402.1,1359.2,3037.8,0,63.1
0.149850,421.8,33.0,1335.4,315.0,3055.0,77.2,406.2,1404.5,3031.3,0,62.9
0.151850,411.9,32.5,1396.7,345.7,3042.7,79.2,410.2,1448.3,3025.2,0,62.8
0.153850,404.8,31.3,1458.9,354.3,3032.8,79.3,414,1489.3,3019.6,119.5,62.7
0.155850,403.8,30.0,1506.4,324.7,3024.1,78.3,417.4,1526.3,3014.6,116.5,62.4
0.157850,407.6,29.4,1550.1,277.1,3013.3,84.5,420.4,1558.3,3010.4,113.6,62
0.159850,414.0,30.9,1605.1,233.0,2997.4,102.9,422.8,1584.1,3006.9,110.8,61.4
0.161850,420.8,33.9,1660.4,201.4,2980.7,122.3,424.6,1603.2,3004.4,108.2,60.7
0.163850,425.3,34.2,1697.8,183.6,2972.2,127.5,425.7,1614.9,3002.9,105.7,60
0.165850,428.5,31.5,1723.0,177.4,2970.2,124.0,426,1618.8,3002.4,103.4,59.4
