time,f1,b1,f2,b2,f3,b3,f1p,f2p,f3p,f0,intensity
0.025848,502.7,214.0,816.0,1187.6,2703.4,751.0,487.4,915.4,2591.6,182.5,53.7
0.027848,486.3,193.8,910.8,740.8,2696.5,869.7,487.9,914.7,2594.9,182.2,54.2
0.029848,482.0,162.8,941.5,545.8,2642.1,824.0,488.8,913.8,2600.3,181.9,54.8
0.031848,485.1,133.0,940.8,446.1,2586.3,636.4,490,913.4,2607.8,181.5,55.5
0.033848,491.7,112.4,923.5,407.2,2550.6,491.7,491.3,914,2617.3,181.1,56.3
0.035848,497.7,102.7,906.1,403.2,2522.9,438.7,492.9,916.5,2628.7,180.8,57.3
0.037848,500.3,96.4,908.1,395.1,2492.2,488.3,494.5,921.6,2641.7,180.4,58.2
0.039848,498.7,87.0,932.6,353.8,2458.0,660.1,496.1,930.3,2656.2,179.9,59.2
0.041848,496.1,76.4,970.0,301.2,2459.8,987.0,497.5,943.4,2671.8,179.5,60.1
0.043848,494.8,69.6,1012.6,255.3,2696.7,1569.4,498.8,961.4,2688.4,179.1,60.9
0.045848,494.6,66.6,1047.5,213.5,2982.5,569.2,499.7,985,2705.5,178.7,61.7
0.047848,493.8,64.4,1064.0,189.8,2943.5,459.4,500.1,1014.4,2722.7,178.3,62.3
0.049848,491.7,62.1,1067.4,195.3,2906.5,440.5,500,1049.8,2739.7,177.8,62.9
0.051848,489.7,61.4,1067.3,229.9,2854.6,438.9,499.3,1091,2755.9,177.4,63.4
0.053848,489.5,63.9,1072.6,305.0,2802.6,412.3,497.8,1137.7,2770.9,177,63.7
0.055848,492.0,68.8,1102.9,439.1,2765.0,376.9,495.6,1189.2,2784.4,176.6,64
0.057848,496.6,70.0,1192.9,589.5,2741.4,356.7,492.6,1244.8,2795.9,176.1,64.3
0.059848,498.8,65.3,1309.5,634.8,2728.1,361.3,488.7,1303.7,2805.1,175.7,64.4
0.061848,496.2,62.9,1389.4,613.7,2720.0,390.4,483.9,1364.7,2811.6,175.3,64.5
0.063848,489.7,66.6,1442.3,596.5,2718.1,430.7,478.3,1426.9,2815.4,175,64.6
0.065848,480.3,75.1,1498.5,597.0,2742.6,457.1,472,1489.2,2816.4,174.6,64.7
0.067848,469.0,83.8,1568.1,568.5,2794.5,407.9,464.9,1550.8,2814.5,174.2,64.7
0.069848,457.6,88.3,1626.8,476.4,2820.2,310.2,457.1,1610.9,2810.1,173.9,64.7
0.071848,447.4,88.6,1665.7,375.3,2823.0,247.7,448.9,1668.7,2803.2,173.5,64.6
0.073848,438.1,87.4,1703.8,305.8,2814.9,223.7,440.2,1723.9,2794.3,173.2,64.6
0.075848,428.5,85.9,1753.7,269.5,2795.6,229.1,431.2,1776.2,2784,172.8,64.6
0.077848,418.2,84.5,1816.0,254.5,2766.9,250.1,422.1,1825.8,2772.7,172.5,64.6
0.079848,407.8,84.3,1886.2,242.1,2744.4,259.2,413.1,1872.7,2761,172.2,64.6
0.081848,399.1,85.0,1953.4,204.9,2742.3,234.7,404.1,1917.4,2749.8,171.9,64.6
0.083848,392.9,85.1,2002.2,147.8,2751.3,185.9,395.5,1960.5,2739.4,171.6,64.7
0.085848,386.8,83.0,2032.7,102.7,2761.0,142.1,387.3,2002.4,2730.7,171.3,64.8
0.087848,379.1,77.1,2053.1,78.0,2769.1,115.6,379.7,2044,2724.2,171,64.9
0.089848,370.5,67.3,2070.0,68.5,2774.2,102.7,372.6,2085.9,2720.3,170.7,65.1
0.091848,362.6,56.6,2088.9,72.5,2773.2,96.8,366.2,2128.5,2719.3,170.5,65.3
0.093848,356.6,48.5,2117.3,97.4,2761.8,94.8,360.6,2172.4,2721.5,170.2,65.4
0.095848,353.2,44.0,2168.2,156.8,2741.9,97.2,355.7,2217.9,2726.9,169.9,65.6
0.097848,352.0,42.2,2250.6,237.7,2725.7,104.8,351.5,2264.9,2735.4,169.6,65.7
0.099848,351.7,41.1,2337.0,280.2,2723.5,112.0,348,2313.3,2746.8,169.3,65.7
0.101848,350.6,39.9,2394.8,285.3,2734.7,110.4,345.2,2362.7,2760.6,169,65.8
0.103848,348.6,38.9,2436.7,298.4,2749.4,105.0,342.9,2412.6,2776.4,168.7,65.7
0.105848,346.4,37.9,2485.6,323.1,2761.7,106.4,341.1,2462.2,2793.5,168.4,65.7
0.107848,344.4,36.8,2547.9,324.2,2774.4,120.6,339.7,2510.6,2811.2,168.1,65.6
0.109848,342.1,35.6,2600.6,274.9,2794.8,142.4,338.5,2556.7,2828.8,167.8,65.6
0.111848,339.3,34.7,2620.1,228.5,2817.9,149.5,337.5,2599.6,2845.6,167.5,65.5
0.113848,336.9,34.5,2623.4,223.6,2830.1,153.1,336.6,2638.2,2860.9,167.2,65.3
0.115848,335.0,35.7,2629.1,241.1,2837.7,172.8,335.6,2671.8,2874,166.9,65.1
0.117848,333.3,38.6,2648.5,248.0,2851.8,215.0,334.5,2699.4,2884.6,166.5,64.9
0.119848,331.5,43.0,2672.9,224.2,2881.2,264.9,333.3,2720.7,2892.1,166.2,64.6
0.121848,329.3,47.9,2690.4,200.7,2915.5,291.6,331.9,2735.4,2896.5,165.8,64.4
0.123848,326.4,52.2,2704.4,203.5,2935.8,307.1,330.2,2743.4,2897.7,165.5,64.1
0.125848,323.3,55.2,2715.1,233.0,2937.2,327.9,328.3,2745.1,2895.7,165.1,63.7
0.127848,320.7,57.6,2726.4,270.0,2925.3,365.0,326.3,2741,2891,164.8,63.4
0.129848,318.8,60.4,2757.0,271.0,2906.4,475.5,324.1,2731.9,2883.8,164.4,63.1
0.131848,318.5,63.4,2782.8,204.8,2932.2,740.0,321.8,2718.9,2874.8,164.1,62.7
0.133848,320.0,64.9,2791.7,162.1,3022.2,2470.8,319.6,2703.1,2864.5,163.7,62.4
0.135848,321.5,65.0,2786.9,157.4,2876.4,1734.5,317.4,2685.8,2853.7,163.4,62
0.137848,320.4,65.6,2757.7,181.6,2856.7,940.4,315.4,2668.4,2843.1,163,61.6
0.139848,315.6,67.2,2711.1,184.0,2841.7,737.4,313.6,2652.2,2833.3,162.7,61.2
0.141848,310.1,68.5,2680.9,162.4,2829.6,766.5,312.1,2638.2,2825,162.3,60.9
0.143848,308.2,69.9,2669.0,172.7,2777.8,856.4,311,2627.4,2818.6,162,60.5
0.145848,311.5,73.5,2578.3,881.4,2686.7,236.2,310.3,2620.7,2814.7,161.7,60.1
0.147848,317.3,78.6,2320.1,662.1,2735.3,268.1,310.1,2618.4,2813.3,161.4,59.8
