time,f1,b1,f2,b2,f3,b3,f1p,f2p,f3p,f0,intensity
0.024998,438.9,196.8,2341.9,211.5,2834.2,1276.0,470.5,2341.6,2832.2,189.8,67.2
0.026998,445.0,197.0,2338.7,169.3,2846.2,1523.4,472.1,2340.7,2825.8,189.7,68.1
0.028998,449.8,200.9,2332.9,143.6,2833.4,1595.3,474.7,2339.1,2815.3,189.5,68.8
0.030998,459.8,198.7,2322.9,127.9,2827.6,1497.0,478.2,2337,2801,189.3,69.3
0.032998,477.1,185.7,2310.4,116.3,2832.0,1314.4,482.7,2334.4,2783.3,189,69.7
0.034998,496.8,164.8,2300.6,108.2,2815.1,1149.2,488.1,2331.5,2762.5,188.8,69.9
0.036998,513.4,144.0,2298.2,105.4,2773.1,1055.4,494.1,2328.3,2739.3,188.5,70.1
0.038998,525.9,126.7,2304.3,109.4,2713.1,1001.2,500.8,2325,2714.1,188.2,70.3
0.040998,535.4,112.1,2316.4,119.8,2648.6,944.3,508,2321.7,2687.6,187.9,70.4
0.042998,542.6,98.8,2330.6,133.4,2603.8,888.5,515.6,2318.6,2660.3,187.5,70.4
0.044998,547.8,86.7,2342.2,146.3,2584.1,854.6,523.4,2315.7,2633,187.2,70.5
0.046998,551.7,76.0,2348.6,157.2,2570.7,843.6,531.3,2313.1,2606.1,186.8,70.5
0.048998,554.8,67.7,2351.0,164.2,2546.0,850.6,539.1,2310.9,2580.3,186.4,70.5
0.050998,557.1,63.0,2352.1,164.3,2511.3,878.9,546.7,2309.1,2556.1,186,70.5
0.052998,558.2,61.9,2351.8,157.9,2480.6,933.6,553.9,2307.8,2533.8,185.7,70.5
0.054998,557.8,63.7,2347.8,151.0,2461.2,1010.6,560.6,2307,2513.8,185.2,70.4
0.056998,556.6,66.7,2339.3,148.5,2451.8,1098.5,566.6,2306.6,2496.5,184.8,70.2
0.058998,555.9,69.1,2328.3,151.3,2452.3,1179.8,571.8,2306.5,2481.9,184.4,70.1
0.060998,557.2,70.4,2319.2,160.9,2460.6,1195.9,576.2,2306.8,2470.3,184,69.9
0.062998,561.5,72.1,2312.9,182.8,2474.3,1078.8,579.6,2307.2,2461.6,183.6,69.7
0.064998,568.9,75.0,2302.5,225.3,2493.4,852.1,582,2307.7,2455.7,183.2,69.5
0.066998,577.8,78.2,2272.6,281.6,2521.9,604.9,583.4,2308.2,2452.5,182.8,69.4
0.068998,584.7,80.5,2235.0,306.2,2548.9,459.1,583.9,2308.6,2451.7,182.5,69.3
0.070998,585.8,83.5,2222.2,323.7,2553.3,431.1,583.3,2308.7,2453.2,182.1,69.1
0.072998,580.9,88.0,2238.7,346.7,2534.6,494.3,581.9,2308.5,2456.5,181.7,69
0.074998,573.8,92.1,2271.6,343.2,2501.1,609.8,579.7,2307.9,2461.3,181.4,68.9
0.076998,567.8,96.1,2294.4,319.5,2479.1,690.6,576.8,2306.9,2467.4,181.1,68.8
0.078998,564.1,101.0,2308.4,317.7,2469.8,678.0,573.5,2305.4,2474.3,180.8,68.7
0.080998,562.6,106.7,2322.6,340.3,2464.4,614.5,569.8,2303.3,2481.6,180.5,68.6
0.082998,562.4,113.2,2328.2,387.0,2467.6,522.4,566,2300.9,2489.2,180.3,68.5
0.084998,562.9,121.7,2295.6,421.2,2497.3,419.5,562.3,2298,2496.6,180,68.4
0.086998,562.7,132.6,2258.8,411.8,2516.2,369.6,558.9,2294.9,2503.7,179.9,68.4
0.088998,559.1,144.2,2251.4,404.7,2508.3,393.8,556,2291.5,2510.2,179.7,68.4
0.090998,554.8,155.0,2281.4,392.7,2475.3,477.9,553.7,2288.1,2516.1,179.6,68.4
0.092998,554.6,164.2,2331.1,332.6,2434.2,588.2,552.2,2284.8,2521.2,179.5,68.3
0.094998,558.9,171.2,2358.1,266.6,2426.0,639.3,551.7,2281.7,2525.5,179.4,68.3
0.096998,564.7,174.4,2367.0,239.3,2439.1,594.2,552.2,2279,2529,179.4,68.3
0.098998,569.3,173.8,2353.3,245.7,2469.0,474.7,553.8,2276.9,2531.8,179.4,68.3
0.100998,572.7,170.6,2321.0,233.3,2510.7,370.6,556.5,2275.4,2534,179.4,68.2
0.102998,575.4,167.5,2300.7,207.3,2539.1,318.2,560.3,2274.8,2535.7,179.5,68.2
0.104998,577.9,166.8,2290.0,194.0,2558.4,293.9,565.2,2275,2537,179.6,68.1
0.106998,581.4,168.7,2279.9,192.5,2573.3,269.9,570.8,2276.3,2538.1,179.7,68.1
0.108998,586.4,172.0,2266.8,195.3,2584.4,235.4,577.3,2278.5,2539.3,179.9,68
0.110998,591.8,176.2,2252.2,197.6,2591.9,198.8,584.2,2281.7,2540.5,180.1,67.9
0.112998,596.0,180.3,2240.1,198.0,2596.1,171.1,591.4,2285.9,2542.1,180.3,67.8
0.114998,596.2,183.4,2237.0,198.4,2596.0,163.0,598.6,2290.9,2544.2,180.6,67.7
0.116998,591.7,186.6,2246.2,202.1,2590.0,181.3,605.5,2296.8,2546.8,180.8,67.6
0.118998,586.3,190.7,2262.6,208.7,2576.8,217.8,612,2303.4,2550.1,181.2,67.5
0.120998,584.5,194.3,2277.2,218.2,2560.8,241.7,617.5,2310.4,2554.1,181.5,67.5
0.122998,589.1,195.0,2283.7,231.0,2551.5,230.8,622,2317.8,2558.9,181.8,67.4
0.124998,598.8,190.9,2286.2,243.5,2551.4,210.3,625.2,2325.4,2564.4,182.2,67.3
0.126998,608.9,185.6,2296.7,259.3,2556.8,215.3,626.8,2333,2570.6,182.5,67.2
0.128998,616.0,182.7,2322.7,277.2,2567.2,262.2,626.8,2340.5,2577.5,182.9,67.1
0.130998,619.9,178.9,2354.3,278.6,2589.2,341.7,624.9,2347.5,2585,183.3,67
0.132998,620.3,171.4,2370.0,271.9,2623.7,394.4,621.1,2354.1,2593,183.6,66.8
0.134998,617.2,163.1,2374.4,279.7,2647.5,395.7,615.5,2360.1,2601.3,184,66.7
0.136998,612.6,156.0,2383.7,312.6,2644.7,385.9,608,2365.3,2609.9,184.4,66.6
0.138998,608.9,149.4,2409.2,388.6,2611.6,373.4,598.9,2369.8,2618.6,184.7,66.4
0.140998,606.5,143.5,2440.0,504.0,2570.4,323.6,588.3,2373.4,2627.4,185,66.3
0.142998,603.9,140.4,2463.6,501.2,2548.8,325.1,576.4,2376.2,2635.9,185.3,66.1
0.144998,598.4,143.3,2453.8,334.3,2569.0,436.1,563.5,2378.3,2644.3,185.6,66
0.146998,587.4,154.6,2429.8,289.6,2600.4,420.5,550.1,2379.6,2652.2,185.8,65.8
0.148998,570.1,173.6,2409.3,312.7,2619.1,331.1,536.3,2380.3,2659.7,186.1,65.6
0.150998,546.2,200.6,2373.9,349.9,2641.2,230.5,522.6,2380.4,2666.6,186.3,65.5
0.152998,517.8,230.7,2337.5,357.6,2657.1,167.7,509.5,2380.1,2672.9,186.5,65.3
0.154998,493.3,252.0,2320.1,322.4,2666.8,136.8,497.1,2379.5,2678.4,186.7,65.2
0.156998,480.3,262.1,2328.3,256.8,2681.6,117.8,486,2378.7,2683.2,186.8,65
0.158998,474.9,268.5,2348.5,190.8,2705.4,96.7,476.5,2377.9,2687.2,186.9,65
0.160998,467.1,278.0,2364.8,148.4,2725.9,76.0,468.7,2377.1,2690.3,187,64.9
0.162998,452.8,291.8,2373.3,131.0,2737.8,63.3,463,2376.5,2692.6,187.1,64.9
0.164998,430.9,310.2,2374.9,136.4,2743.7,60.5,459.5,2376.1,2693.9,187.2,64.8
0.166998,399.1,337.3,2367.2,173.8,2744.7,69.1,458.3,2376,2694.4,0,64.7
