time,f1,b1,f2,b2,f3,b3,f1p,f2p,f3p,f0,intensity
0.025129,514.6,208.7,1247.7,208.9,3317.9,591.2,538.4,1281.7,3328,0,62.5
0.027129,524.4,179.8,1244.4,168.3,3334.4,444.3,540.7,1284.9,3332.8,0,63.6
0.029129,530.8,175.8,1247.6,156.5,3339.4,366.3,544.4,1290.4,3340.5,0,64.5
0.031129,535.3,189.9,1252.4,167.2,3354.2,309.8,549.3,1298.5,3350.9,0,65.2
0.033129,543.0,222.7,1261.5,211.7,3373.9,261.6,555.2,1309.5,3363.6,0,65.7
0.035129,559.3,257.8,1283.0,295.1,3386.5,222.1,561.8,1323.7,3378.4,0,66.1
0.037129,576.5,263.2,1317.3,363.1,3392.8,197.9,568.9,1341.5,3394.6,112,66.4
0.039129,587.7,252.9,1355.7,382.5,3402.3,186.2,576.2,1363.4,3411.9,112.4,66.6
0.041129,598.6,257.2,1408.2,394.5,3423.2,179.9,583.2,1389.6,3429.6,112.7,66.6
0.043129,614.1,283.6,1496.9,411.4,3454.7,165.2,589.7,1420.3,3447.4,113.1,66.7
0.045129,625.4,301.8,1580.9,378.0,3476.0,145.7,595.4,1455.7,3464.7,113.6,66.6
0.047129,626.2,298.7,1621.3,307.4,3482.8,134.4,599.9,1495.5,3481.2,114,66.6
0.049129,624.6,293.0,1640.6,227.1,3482.8,131.5,603,1539.7,3496.4,114.6,66.6
0.051129,623.9,299.2,1662.5,150.8,3482.9,139.5,604.7,1587.8,3510.2,115.1,66.6
0.053129,617.9,311.8,1684.9,106.1,3490.4,167.1,604.6,1639.2,3522.3,115.7,66.6
0.055129,604.9,313.5,1705.4,90.0,3512.3,206.4,602.7,1693.2,3532.7,116.3,66.6
0.057129,592.1,310.1,1729.0,91.8,3546.1,224.3,599.1,1748.8,3541.3,117,66.6
0.059129,580.0,311.3,1769.3,105.5,3578.2,207.6,593.7,1805.2,3548.3,117.7,66.7
0.061129,566.6,300.5,1830.5,113.3,3592.4,188.9,586.7,1861.1,3553.8,118.4,66.7
0.063129,552.7,257.8,1886.2,101.2,3590.9,183.6,578.3,1915.5,3558,119.1,66.7
0.065129,542.8,212.9,1920.9,88.0,3582.7,181.0,568.5,1967.2,3561.2,119.8,66.7
0.067129,538.1,190.1,1941.8,86.8,3576.5,173.8,557.7,2015.3,3563.8,120.6,66.6
0.069129,532.7,179.3,1968.5,100.5,3575.8,163.8,546,2058.7,3565.9,121.3,66.4
0.071129,525.3,165.6,2017.6,123.4,3580.9,160.3,533.8,2096.8,3567.9,122.1,66.2
0.073129,518.7,144.5,2090.1,127.2,3588.3,174.0,521.3,2128.9,3570.1,122.8,66.1
0.075129,510.3,125.0,2145.8,103.8,3591.0,214.5,508.7,2154.6,3572.7,123.6,66
0.077129,494.4,111.8,2172.5,81.1,3580.5,300.8,496.3,2173.8,3575.8,124.3,66
0.079129,475.4,103.1,2181.1,65.3,3537.8,432.6,484.2,2186.7,3579.5,125,66.1
0.081129,462.7,96.5,2182.7,53.9,3480.2,457.6,472.6,2193.6,3583.8,125.6,66.2
0.083129,460.4,94.2,2181.8,48.5,3505.9,364.3,461.7,2195.1,3588.6,126.2,66.4
0.085129,462.9,95.0,2179.8,47.9,3557.3,264.6,451.4,2192,3593.8,126.8,66.5
0.087129,464.5,94.0,2178.8,51.7,3593.6,196.3,441.8,2185.3,3599.2,127.4,66.5
0.089129,461.6,90.5,2180.3,62.2,3615.4,153.3,432.9,2176.1,3604.4,127.9,66.5
0.091129,453.0,88.3,2184.3,85.8,3625.4,135.2,424.6,2165.5,3609.2,128.3,66.4
0.093129,438.9,89.1,2191.4,133.7,3631.4,137.6,417,2154.8,3613.1,128.7,66.3
0.095129,423.6,89.4,2204.0,206.7,3639.8,150.3,409.8,2145.1,3615.8,129.1,66.2
0.097129,410.6,86.6,2223.2,283.7,3647.8,156.8,402.9,2137.3,3616.9,129.4,66.1
0.099129,398.8,81.6,2237.8,333.9,3645.2,153.4,396.4,2132.4,3616,129.7,66.1
0.101129,385.8,75.6,2240.1,371.9,3633.4,154.8,389.9,2131.1,3612.8,129.9,66.1
0.103129,373.4,69.1,2233.8,411.8,3615.2,165.3,383.5,2133.8,3607,130,66.2
0.105129,364.9,63.8,2223.1,443.5,3596.5,177.6,377,2140.6,3598.6,130.2,66.2
0.107129,357.1,58.4,2201.8,451.1,3584.1,190.5,370.4,2151.5,3587.3,130.3,66.3
0.109129,348.2,51.9,2170.5,439.0,3580.0,205.9,363.6,2166.1,3573.2,130.3,66.3
0.111129,340.1,45.5,2138.8,440.4,3582.8,226.8,356.6,2183.8,3556.4,130.3,66.3
0.113129,334.5,41.3,2113.5,486.3,3590.7,256.4,349.5,2203.8,3537,130.3,66.3
0.115129,329.5,38.4,2093.5,590.7,3594.3,301.8,342.2,2225.1,3515.2,130.3,66.3
0.117129,324.3,35.8,2083.4,754.3,3576.4,363.6,335,2246.4,3491.5,130.2,66.3
0.119129,320.0,34.7,2094.8,1007.1,3526.9,429.9,327.7,2266.5,3466.1,130.1,66.3
0.121129,316.9,35.3,2130.2,1380.7,3463.2,512.6,320.7,2284.3,3439.6,130,66.3
0.123129,314.1,36.2,2190.0,1968.9,3404.7,667.3,313.9,2298.4,3412.4,129.9,66.3
0.125129,311.7,36.4,2447.9,3130.0,3337.9,1048.6,307.5,2307.9,3384.9,129.7,66.3
0.127129,309.6,36.3,2270.5,8100.7,3046.9,1079.7,301.6,2311.7,3357.6,129.5,66.3
0.129129,306.5,35.2,2326.2,4996.3,3041.1,904.0,296.4,2309.3,3331.1,129.4,66.3
0.131129,302.6,32.9,2252.5,2439.5,3131.7,697.9,291.8,2300.2,3305.5,129.2,66.2
0.133129,299.0,31.6,2188.7,1602.9,3162.9,510.5,288,2284.2,3281.4,129,66.3
0.135129,295.8,31.9,2193.5,1324.4,3178.1,446.8,284.9,2261.6,3259,128.8,66.3
0.137129,292.0,32.3,2222.8,1270.9,3204.2,460.5,282.7,2232.9,3238.5,128.6,66.4
0.139129,289.0,31.2,2281.9,1371.3,3269.4,569.7,281.1,2198.8,3220,128.5,66.4
0.141129,288.0,29.9,2447.1,1515.6,3500.5,348.8,280.3,2160.4,3203.6,128.3,66.6
0.143129,287.1,30.0,2481.2,1203.3,3505.1,165.9,280.1,2119,3189.4,128.1,66.7
0.145129,284.1,30.5,2371.7,1017.3,3512.2,108.9,280.3,2076,3177.2,127.9,66.8
0.147129,280.6,31.1,2312.0,957.7,3518.7,113.4,281,2033,3166.9,127.8,67
0.149129,278.8,33.3,2189.1,1026.1,3499.5,3403.3,281.9,1991.7,3158.5,127.6,67.1
0.151129,278.2,38.9,1895.2,875.5,3169.8,1303.4,283,1953.5,3151.8,127.5,67.2
0.153129,278.0,49.3,1745.3,568.2,3003.7,637.8,284.1,1919.9,3146.6,127.3,67.2
0.155129,278.8,62.9,1696.2,418.6,2937.5,428.9,285,1892.4,3142.7,127.2,67.2
0.157129,280.7,75.4,1679.6,360.3,2919.9,348.8,285.8,1871.8,3140,127.1,67.2
0.159129,281.1,78.6,1675.3,344.8,2922.8,320.2,286.3,1859.2,3138.5,127,67.1
0.161129,277.8,69.8,1676.1,350.7,2933.1,313.8,286.4,1854.9,3138,126.9,67
