time,f1,b1,f2,b2,f3,b3,f1p,f2p,f3p,f0,intensity
0.025846,403.9,353.2,1506.4,381.9,2888.8,177.7,438.4,1483.6,2849,149.7,67.4
0.027846,444.5,344.6,1482.8,413.4,2874.3,134.0,443.9,1482,2848.7,149.4,67.8
0.029846,476.9,369.3,1467.4,468.5,2861.3,104.7,453,1479.4,2848.1,149,68.2
0.031846,503.9,411.1,1464.3,515.4,2848.6,94.7,465.7,1476.2,2847,148.5,68.5
0.033846,519.0,425.0,1468.7,499.6,2836.9,105.9,481.9,1472.5,2845.4,148.1,68.7
0.035846,525.6,415.4,1474.6,445.7,2825.4,129.7,501.5,1468.7,2842.9,147.7,68.9
0.037846,532.7,413.8,1475.7,391.0,2812.4,154.4,524.4,1465.2,2839.4,147.2,68.9
0.039846,541.9,430.6,1467.7,343.2,2801.9,167.6,550.3,1462.3,2834.8,146.8,68.8
0.041846,554.2,462.4,1455.8,288.9,2796.8,175.4,579,1460.3,2828.9,146.4,68.7
0.043846,569.6,509.4,1448.2,240.3,2798.4,184.9,610.1,1459.4,2821.6,146,68.5
0.045846,587.5,565.7,1446.0,207.2,2802.3,193.4,643.2,1459.7,2813,145.5,68.4
0.047846,614.1,618.6,1448.7,183.1,2805.0,196.4,677.7,1461.5,2803.2,145.2,68.3
0.049846,656.4,647.4,1456.2,168.9,2805.5,191.2,713.1,1464.5,2792.4,144.8,68.4
0.051846,727.1,652.3,1468.7,164.4,2802.3,179.8,748.6,1468.7,2780.9,144.4,68.5
0.053846,822.2,611.3,1483.6,166.7,2793.2,173.8,783.6,1473.8,2769,144.1,68.7
0.055846,891.3,525.8,1495.6,171.7,2778.5,181.5,817.5,1479.4,2757.1,143.8,68.9
0.057846,923.0,457.0,1502.8,178.4,2759.7,198.2,849.4,1485.2,2745.8,143.5,69.1
0.059846,930.8,420.4,1504.1,181.9,2743.4,207.2,878.7,1490.8,2735.3,143.2,69.4
0.061846,931.8,397.8,1501.4,180.3,2729.6,201.1,904.9,1495.6,2726.1,143,69.6
0.063846,934.3,379.1,1497.9,174.7,2715.9,184.0,927.3,1499.2,2718.6,142.8,69.8
0.065846,936.7,362.3,1495.4,169.8,2703.2,165.3,945.6,1501.3,2713.1,142.6,69.9
0.067846,936.9,349.4,1492.6,169.2,2693.7,152.1,959.5,1501.5,2709.6,142.5,70.1
0.069846,939.3,342.1,1488.9,172.4,2692.0,150.7,968.8,1499.7,2708.3,142.4,70.2
0.071846,948.2,337.1,1485.3,175.6,2703.0,157.0,973.5,1495.6,2709.1,142.3,70.3
0.073846,959.9,327.7,1482.6,177.9,2725.1,155.0,973.8,1489.3,2711.7,142.3,70.3
0.075846,965.2,318.9,1479.3,183.5,2739.0,137.7,969.9,1481,2716.1,142.3,70.3
0.077846,961.1,324.0,1472.2,199.1,2736.7,120.0,962.2,1470.9,2721.6,142.3,70.2
0.079846,947.0,342.6,1459.2,221.3,2726.1,112.5,951.1,1459.3,2728,142.3,70.1
0.081846,928.6,360.7,1443.6,242.6,2718.2,112.4,937.2,1446.7,2734.7,142.4,69.9
0.083846,912.7,375.2,1431.5,265.9,2718.2,116.1,921,1433.6,2741.1,142.5,69.7
0.085846,901.8,390.1,1427.4,289.4,2726.8,123.9,903.1,1420.4,2746.9,142.6,69.5
0.087846,885.6,413.5,1422.6,305.2,2740.2,138.2,884.1,1407.9,2751.7,142.8,69.3
0.089846,859.9,436.1,1408.1,300.5,2750.0,157.6,864.4,1396.4,2755,143,69.2
0.091846,836.2,444.4,1391.9,281.8,2754.5,176.6,844.4,1386.4,2756.8,143.1,69
0.093846,819.3,450.1,1378.9,263.2,2758.3,191.5,824.5,1378.3,2756.8,143.4,68.9
0.095846,808.2,462.5,1370.3,249.4,2762.8,193.3,804.9,1372.5,2755.1,143.6,68.8
0.097846,800.3,482.3,1365.2,238.5,2766.5,176.9,785.6,1368.9,2751.9,143.8,68.6
0.099846,794.9,503.7,1363.2,236.7,2767.2,147.6,766.8,1367.9,2747.5,144,68.4
0.101846,787.6,514.5,1363.0,250.6,2764.5,122.8,748.3,1369.2,2742.2,144.3,68.2
0.103846,769.9,511.8,1364.3,281.2,2758.2,115.0,730,1372.8,2736.4,144.5,68
0.105846,731.1,490.0,1368.6,296.6,2746.0,129.6,711.8,1378.4,2730.7,144.8,67.9
0.107846,681.0,439.7,1379.7,265.3,2724.0,150.4,693.4,1385.7,2725.5,145.1,67.7
0.109846,640.3,381.7,1395.9,215.4,2700.1,151.2,674.8,1394.4,2721.2,145.3,67.7
0.111846,619.4,347.3,1409.8,184.9,2693.6,137.6,655.7,1404.1,2718.3,145.6,67.7
0.113846,606.7,327.8,1422.0,173.1,2699.7,128.8,636.1,1414.4,2717.1,145.8,67.8
0.115846,596.1,314.0,1431.8,176.9,2710.2,127.8,616,1424.9,2717.7,146.1,67.9
0.117846,585.3,305.8,1439.1,190.3,2720.4,129.8,595.5,1435.4,2720.3,146.3,68
0.119846,569.9,304.0,1447.5,200.5,2729.0,131.6,574.7,1445.3,2724.6,146.5,68
0.121846,551.2,302.9,1458.7,191.0,2734.3,131.6,554,1454.7,2730.6,146.8,68
0.123846,535.6,294.9,1469.6,168.5,2737.5,129.2,533.6,1463.2,2737.9,147,68
0.125846,527.4,280.8,1474.7,153.0,2740.5,127.2,514.1,1470.7,2746,147.2,67.8
0.127846,518.9,269.2,1473.6,151.4,2745.2,131.6,495.8,1477.2,2754.5,147.4,67.5
0.129846,503.8,266.8,1468.7,162.6,2753.6,145.3,479.3,1482.6,2762.9,147.5,67.2
0.131846,488.6,272.8,1466.8,179.1,2766.3,159.3,465.1,1487,2770.7,147.7,66.8
0.133846,476.9,285.1,1473.7,195.5,2784.7,163.6,453.5,1490.3,2777.3,147.9,66.4
0.135846,461.3,312.5,1487.5,217.4,2804.0,155.2,444.9,1492.6,2782.4,148,66
0.137846,428.6,359.8,1503.5,250.9,2819.3,146.9,439.7,1494,2785.5,148.1,65.7
0.139846,374.7,399.1,1523.3,277.5,2757.6,1744.9,437.9,1494.5,2786.6,148.2,65.8
