time,f1,b1,f2,b2,f3,b3,f1p,f2p,f3p,f0,intensity
0.025438,413.3,18.0,1748.5,165.5,2662.9,177.3,406.2,1923.9,2656.8,202.9,78.5
0.027438,412.4,17.1,1807.4,223.0,2661.8,158.9,406.1,1929.5,2660.9,202.9,78.9
0.029438,411.1,15.8,1885.8,266.1,2663.9,156.9,405.8,1938.6,2667.7,202.8,79.3
0.031438,409.2,14.2,1949.5,273.1,2666.5,164.8,405.5,1951.1,2677,202.8,79.7
0.033438,406.9,12.7,1987.2,261.9,2667.1,176.8,405.1,1966.9,2688.7,202.8,80.1
0.035438,404.3,11.1,2017.0,244.5,2667.6,192.4,404.7,1985.7,2702.4,202.7,80.4
0.037438,402.0,10.0,2049.6,225.8,2672.9,212.5,404.2,2007.1,2717.9,202.7,80.6
0.039438,400.0,9.2,2094.8,201.4,2695.4,241.9,403.7,2031,2734.8,202.7,80.9
0.041438,398.6,9.0,2144.8,164.0,2748.0,261.3,403.2,2056.8,2752.9,202.7,81
0.043438,397.6,9.0,2180.9,125.5,2807.3,244.7,402.8,2084.2,2771.7,202.8,81.1
0.045438,396.8,8.8,2203.0,96.7,2849.5,212.7,402.4,2112.7,2790.9,202.8,81.2
0.047438,396.2,8.3,2215.2,79.1,2872.7,190.7,402.1,2142,2810.1,202.9,81.2
0.049438,395.9,7.7,2224.3,68.0,2888.8,180.3,401.8,2171.5,2829.1,202.9,81.1
0.051438,396.1,7.6,2232.4,64.0,2898.0,180.0,401.7,2200.9,2847.3,203,80.9
0.053438,396.8,7.9,2240.9,67.5,2895.0,182.4,401.6,2229.7,2864.6,203.1,80.6
0.055438,398.1,8.6,2251.9,77.5,2881.7,176.1,401.7,2257.5,2880.7,203.2,80.2
0.057438,399.8,9.5,2264.5,87.5,2874.1,158.0,401.8,2284,2895.4,203.3,79.8
0.059438,402.0,10.7,2278.5,93.4,2879.6,135.6,402.1,2308.7,2908.4,203.4,79.2
0.061438,404.7,11.9,2291.6,96.2,2892.3,118.4,402.5,2331.4,2919.6,203.4,78.6
0.063438,407.5,13.0,2304.1,98.5,2903.5,110.2,402.9,2351.8,2929,203.5,77.9
0.065438,410.1,14.0,2318.1,100.7,2911.6,110.0,403.4,2369.8,2936.5,203.6,77.2
0.067438,411.9,14.8,2330.5,100.7,2917.8,113.6,404,2385.2,2942.2,203.6,76.6
0.069438,412.2,15.3,2338.9,99.5,2923.4,112.6,404.5,2397.8,2946,203.7,76
0.071438,411.3,15.9,2348.2,101.4,2927.5,104.7,405,2407.7,2948.1,203.7,75.6
0.073438,410.1,16.4,2364.9,109.4,2929.9,98.0,405.6,2415,2948.7,203.7,75.3
0.075438,409.0,17.0,2396.0,120.5,2933.9,98.3,406,2419.6,2947.8,203.6,75
0.077438,408.3,17.8,2430.2,123.0,2941.8,104.5,406.4,2421.7,2945.7,203.6,74.8
0.079438,407.6,18.7,2451.7,118.6,2952.7,113.5,406.6,2421.5,2942.5,203.5,74.6
0.081438,406.4,19.2,2451.4,119.2,2961.1,126.5,406.7,2419.3,2938.5,203.4,74.4
0.083438,404.9,19.3,2436.9,125.8,2963.4,145.5,406.7,2415.2,2933.9,203.2,74.2
0.085438,403.4,19.4,2419.2,134.0,2958.6,177.5,406.5,2409.6,2928.9,203,74.1
0.087438,402.2,19.8,2410.1,142.9,2945.3,222.2,406.2,2402.8,2923.7,202.8,74
0.089438,401.0,20.7,2409.8,157.7,2921.1,259.0,405.7,2395.1,2918.5,202.5,73.9
0.091438,400.1,21.6,2412.1,176.7,2898.6,246.0,405,2386.8,2913.4,202.2,74
0.093438,399.4,21.6,2411.9,193.3,2889.0,211.0,404.1,2378.2,2908.6,201.9,74
0.095438,399.0,20.2,2406.9,209.9,2886.9,187.2,403.1,2369.6,2904.2,201.6,74.1
0.097438,399.0,17.9,2397.0,233.7,2888.5,186.5,402,2361.1,2900.3,201.2,74.1
0.099438,398.7,15.5,2384.1,271.4,2892.8,205.9,400.7,2353,2896.8,200.9,74.2
0.101438,398.0,13.5,2365.6,322.7,2901.3,232.2,399.3,2345.6,2894,200.5,74.3
0.103438,396.8,12.3,2342.4,359.4,2911.1,234.4,397.9,2338.8,2891.6,200,74.4
0.105438,395.7,11.7,2322.0,371.1,2914.5,214.0,396.5,2332.8,2889.7,199.6,74.6
0.107438,395.0,11.7,2312.4,380.1,2910.6,203.3,395,2327.6,2888.3,199.2,74.7
0.109438,394.7,11.7,2310.1,393.7,2905.8,204.5,393.5,2323.1,2887.2,198.8,74.9
0.111438,394.5,11.7,2313.5,404.6,2901.6,200.7,392.1,2319.3,2886.4,198.4,75.1
0.113438,394.2,11.6,2319.2,416.5,2896.7,188.1,390.8,2316.1,2885.8,197.9,75.3
0.115438,393.6,11.6,2322.5,430.1,2889.3,175.2,389.6,2313.2,2885.2,197.5,75.6
0.117438,392.7,11.6,2318.1,436.4,2881.3,171.7,388.5,2310.6,2884.6,197.1,75.8
0.119438,391.6,11.5,2302.7,435.1,2872.8,178.7,387.6,2308,2883.8,196.8,76.1
0.121438,390.3,11.3,2279.5,434.1,2865.0,190.0,386.8,2305.2,2882.7,196.4,76.4
0.123438,389.1,11.0,2256.0,436.2,2858.9,195.0,386.2,2301.9,2881.2,196.1,76.7
0.125438,388.0,10.4,2236.4,441.5,2851.9,194.1,385.8,2298,2879.2,195.7,77
0.127438,387.0,9.8,2230.2,444.8,2843.7,197.7,385.6,2293.3,2876.8,195.4,77.3
0.129438,386.1,9.2,2242.7,430.3,2840.1,211.3,385.6,2287.6,2873.7,195.2,77.6
0.131438,385.3,8.9,2261.6,393.7,2844.6,228.9,385.8,2280.7,2870.1,194.9,78
0.133438,384.9,9.1,2268.3,357.2,2851.0,240.3,386.2,2272.7,2865.9,194.7,78.4
0.135438,384.8,9.4,2263.1,324.8,2853.0,250.7,386.7,2263.3,2861.1,194.5,78.7
0.137438,384.9,9.6,2254.6,294.6,2851.9,269.6,387.4,2252.7,2855.7,194.4,79.1
0.139438,385.4,9.4,2247.3,264.0,2851.4,308.6,388.2,2240.9,2849.9,194.2,79.5
0.141438,386.3,9.1,2242.6,239.5,2853.6,374.6,389.1,2227.9,2843.6,194.1,79.8
0.143438,387.3,8.9,2240.1,223.6,2856.3,459.1,390.1,2214.1,2837,194,80.1
0.145438,388.5,9.0,2238.7,211.6,2856.7,555.6,391.2,2199.5,2830.3,193.9,80.3
0.147438,389.6,9.3,2238.9,200.0,2857.9,652.7,392.3,2184.5,2823.4,193.8,80.4
0.149438,390.9,9.7,2239.7,187.4,2864.2,759.3,393.4,2169.2,2816.5,193.8,80.5
0.151438,392.5,10.2,2236.9,181.4,2866.2,839.5,394.6,2154.1,2809.8,193.8,80.5
0.153438,394.0,10.8,2226.0,190.0,2849.8,862.2,395.6,2139.4,2803.4,193.7,80.4
0.155438,395.6,11.5,2201.0,217.6,2820.0,823.3,396.6,2125.5,2797.4,193.7,80.2
0.157438,397.1,12.2,2160.7,255.4,2802.3,726.4,397.6,2112.7,2791.9,193.7,80
0.159438,398.5,13.2,2107.4,293.4,2797.3,576.4,398.4,2101.2,2787.1,193.7,79.6
0.161438,399.9,14.5,2060.8,325.5,2785.0,421.3,399.1,2091.4,2782.9,193.7,79.2
0.163438,401.2,16.3,2032.8,350.7,2765.7,313.2,399.6,2083.6,2779.7,193.7,78.7
0.165438,402.5,18.7,2014.6,368.9,2744.4,247.8,400,2077.8,2777.3,193.8,78.1
0.167438,403.8,21.5,1993.7,376.5,2722.9,213.8,400.3,2074.3,2775.8,193.8,77.5
0.169438,405.3,24.6,1961.5,372.0,2703.3,197.1,400.4,2073.1,2775.3,193.8,76.8
