time,f1,b1,f2,b2,f3,b3,f1p,f2p,f3p,f0,intensity
0.025878,416.2,97.8,1613.4,122.5,2704.8,172.8,426,1675.9,2685.9,237.6,75.9
0.027878,416.8,93.5,1650.7,135.5,2691.2,149.8,424.9,1692.1,2688.1,237.2,75.7
0.029878,417.1,90.5,1685.9,155.8,2683.5,126.7,423.1,1718.4,2691.8,236.8,75.6
0.031878,417.3,90.5,1722.5,192.5,2682.0,110.4,420.6,1753.6,2696.8,236.3,75.4
0.033878,417.7,93.1,1766.0,251.5,2686.7,102.9,417.7,1796.5,2702.9,235.8,75.3
0.035878,418.5,98.4,1831.2,344.9,2696.9,104.8,414.3,1845.3,2709.8,235.3,75.1
0.037878,419.4,103.6,1926.7,450.4,2710.5,117.4,410.8,1898.2,2717.5,234.8,75
0.039878,419.0,103.8,2038.2,496.9,2726.6,134.9,407.2,1953.3,2725.6,234.3,74.9
0.041878,416.1,97.8,2123.2,450.0,2744.8,144.1,403.7,2008.6,2733.9,233.7,74.7
0.043878,411.1,90.0,2167.3,370.0,2762.2,137.7,400.5,2062.3,2742.2,233.1,74.6
0.045878,404.9,85.7,2186.6,311.7,2774.4,121.1,397.7,2112.9,2750.4,232.5,74.6
0.047878,398.0,88.4,2194.7,290.9,2779.4,102.8,395.3,2159,2758.3,231.9,74.5
0.049878,390.9,98.9,2197.4,302.5,2778.1,88.1,393.5,2199.6,2765.8,231.3,74.4
0.051878,384.5,113.0,2196.8,329.5,2773.7,78.3,392.3,2234,2773,230.6,74.4
0.053878,381.0,123.6,2198.8,350.4,2769.3,73.8,391.8,2262,2779.8,230,74.4
0.055878,381.1,125.8,2211.0,351.4,2767.0,73.7,391.9,2283.7,2786.2,229.3,74.5
0.057878,383.8,119.8,2232.8,334.2,2767.7,76.0,392.5,2299.4,2792.5,228.6,74.6
0.059878,387.5,108.2,2258.7,308.5,2772.4,79.2,393.7,2309.9,2798.8,227.9,74.6
0.061878,392.0,95.0,2283.6,283.2,2781.9,85.2,395.3,2315.9,2805.1,227.2,74.7
0.063878,397.5,83.9,2303.0,261.4,2797.3,96.6,397.2,2318.6,2811.6,226.6,74.7
0.065878,403.0,75.7,2314.8,242.2,2818.6,113.0,399.3,2318.9,2818.4,225.9,74.8
0.067878,407.4,69.0,2321.3,226.6,2842.6,129.4,401.6,2318,2825.8,225.2,74.9
0.069878,410.2,63.0,2327.1,218.2,2863.5,140.8,403.9,2316.8,2833.6,224.5,74.9
0.071878,411.4,57.5,2334.5,219.8,2876.9,146.8,406.1,2316.1,2842,223.8,75
0.073878,411.9,53.0,2342.3,232.6,2882.6,151.1,408.1,2316.5,2851,223.1,75
0.075878,412.0,50.0,2346.7,254.9,2881.8,156.1,410,2318.5,2860.4,222.4,75
0.077878,412.0,48.8,2346.0,277.8,2875.9,160.7,411.6,2322.2,2870.2,221.8,75.1
0.079878,412.0,48.6,2345.1,289.5,2868.1,163.2,412.9,2327.5,2880.1,221.1,75.2
0.081878,412.2,47.7,2349.7,289.9,2862.8,165.8,414,2334.2,2890,220.4,75.3
0.083878,412.8,44.9,2358.4,286.4,2862.8,173.6,414.8,2341.7,2899.7,219.8,75.5
0.085878,413.9,40.1,2366.6,278.0,2868.9,189.3,415.4,2349.7,2908.8,219.2,75.7
0.087878,415.0,34.3,2370.8,258.3,2883.2,213.8,415.7,2357.4,2917.1,218.6,76
0.089878,415.8,29.1,2371.2,227.6,2908.2,245.5,415.8,2364.3,2924.4,218,76.2
0.091878,416.2,25.1,2368.8,194.6,2942.7,274.3,415.8,2369.7,2930.4,217.4,76.4
0.093878,416.1,22.7,2363.2,170.4,2974.1,279.4,415.7,2373.2,2934.9,216.8,76.6
0.095878,415.5,21.4,2354.4,162.2,2983.9,253.4,415.5,2374.5,2937.8,216.3,76.8
0.097878,414.6,20.7,2346.3,168.1,2973.1,217.0,415.2,2373.5,2938.9,215.8,77
0.099878,413.7,20.6,2344.6,179.6,2956.8,190.4,414.8,2370.1,2938.3,215.3,77.1
0.101878,413.3,21.0,2349.6,190.9,2941.8,178.6,414.2,2364.7,2935.9,214.8,77.2
0.103878,413.3,21.6,2353.6,203.7,2928.1,180.3,413.6,2357.5,2931.9,214.3,77.3
0.105878,413.0,22.2,2349.3,222.7,2913.8,190.6,412.8,2349.2,2926.3,213.8,77.3
0.107878,412.1,22.5,2334.9,245.6,2898.9,196.2,411.8,2340.3,2919.3,213.4,77.3
0.109878,410.5,22.6,2314.1,261.2,2885.4,184.2,410.7,2331.4,2911.1,213,77.3
0.111878,408.6,22.9,2296.7,263.3,2875.7,161.3,409.3,2323.4,2901.9,212.6,77.3
0.113878,406.5,24.0,2291.2,259.4,2870.2,141.8,407.7,2316.7,2892.1,212.2,77.2
0.115878,404.6,25.8,2298.1,257.3,2868.8,128.4,405.9,2312,2881.9,211.8,77.1
0.117878,402.9,27.3,2312.4,259.6,2869.7,118.9,403.8,2309.5,2871.4,211.5,77
0.119878,401.3,27.8,2329.9,269.8,2870.4,111.7,401.5,2309.4,2861.1,211.1,76.9
0.121878,399.5,28.0,2350.1,295.1,2868.5,108.3,399,2311.8,2851,210.8,76.7
0.123878,398.0,28.7,2369.1,345.1,2861.8,113.6,396.5,2316.6,2841.5,210.5,76.6
0.125878,396.5,29.3,2374.3,417.8,2850.0,128.2,393.8,2323.2,2832.6,210.2,76.5
0.127878,394.9,29.6,2361.1,481.9,2837.5,144.9,391.2,2331.4,2824.5,209.9,76.3
0.129878,392.6,30.0,2353.3,512.1,2830.6,160.8,388.8,2340.4,2817.3,209.6,76.1
0.131878,389.8,31.6,2370.6,523.9,2828.8,174.2,386.5,2349.5,2811.2,209.3,75.7
0.133878,387.1,34.3,2400.1,534.7,2824.4,179.6,384.5,2358.2,2806.1,209.1,75.3
0.135878,384.4,38.1,2416.5,573.1,2809.3,174.2,382.8,2365.7,2802,208.9,74.8
0.137878,381.3,41.9,2390.0,656.3,2787.9,156.9,381.6,2371.5,2799.2,208.6,74.2
0.139878,376.8,46.4,2312.6,736.8,2771.3,139.9,380.9,2375.2,2797.4,208.4,73.5
0.141878,370.7,53.3,2208.3,770.3,2760.3,135.7,380.6,2376.5,2796.9,208.2,72.9
