time,f1,b1,f2,b2,f3,b3,f1p,f2p,f3p,f0,intensity
0.025798,344.7,267.9,2905.8,480.8,3232.2,788.7,347,2893.6,3281.2,303.5,67.7
0.027798,347.8,180.0,2838.2,329.8,3299.7,550.0,346.6,2886.2,3280.5,303.5,68.6
0.029798,346.3,132.2,2823.6,269.9,3327.7,382.0,345.8,2874.7,3279.6,303.6,69.4
0.031798,344.1,106.6,2831.0,262.6,3282.0,7994.5,344.7,2859.9,3278.5,303.6,70.3
0.033798,342.9,94.7,2845.1,266.1,3000.1,6931.3,343.3,2843.1,3277.6,303.6,71
0.035798,342.9,90.9,2851.0,251.5,3382.3,308.5,341.7,2825.7,3277.2,303.6,71.6
0.037798,342.5,88.9,2842.7,217.9,3397.7,345.9,339.8,2809,3277.4,303.6,72.1
0.039798,340.4,84.3,2828.4,184.8,3393.0,428.8,337.8,2794.4,3278.6,303.5,72.6
0.041798,336.7,77.7,2814.8,167.5,3346.1,545.0,335.8,2783.1,3280.8,303.4,72.9
0.043798,332.2,70.6,2805.2,167.5,3278.1,653.7,333.8,2775.6,3284.1,303.3,73.1
0.045798,328.2,64.8,2802.2,180.0,3222.8,836.0,332.1,2772.5,3288.6,303.1,73.3
0.047798,325.9,64.4,2799.6,195.1,3179.9,1075.5,330.8,2773.6,3294.1,302.9,73.4
0.049798,325.9,72.0,2787.4,215.3,3272.7,1072.6,330.1,2778.5,3300.3,302.6,73.5
0.051798,328.0,86.2,2772.9,238.4,3359.3,595.7,330.1,2786.4,3306.9,302.3,73.5
0.053798,331.7,105.0,2772.2,247.1,3334.0,343.9,331,2796,3313.5,301.9,73.5
0.055798,336.5,127.1,2783.1,242.9,3324.1,238.6,333,2806.1,3319.6,301.4,73.4
0.057798,341.9,150.5,2794.6,241.2,3324.5,195.2,336,2815.1,3324.9,300.9,73.3
0.059798,347.0,173.5,2799.5,248.5,3327.7,180.2,340,2821.8,3328.9,300.3,73.2
0.061798,351.5,193.6,2796.4,258.9,3327.9,173.7,345,2824.9,3331.2,299.7,73
0.063798,355.1,208.4,2791.8,264.0,3324.6,167.1,350.9,2823.6,3331.8,299,72.8
0.065798,358.3,222.0,2792.6,260.6,3319.5,161.1,357.5,2817.3,3330.3,298.2,72.6
0.067798,362.0,242.4,2798.1,249.7,3314.2,156.5,364.4,2806.2,3327,297.3,72.3
0.069798,365.7,270.7,2800.0,236.4,3309.9,153.1,371.3,2790.6,3321.8,296.3,72
0.071798,369.0,301.2,2789.9,224.2,3306.7,151.5,378,2771.4,3315.2,295.3,71.6
0.073798,373.2,333.3,2767.5,210.2,3304.7,152.0,383.9,2749.8,3307.5,294.1,71.2
0.075798,379.9,369.0,2741.4,192.0,3303.9,155.6,388.8,2727.4,3299.2,292.9,70.7
0.077798,387.9,398.1,2719.3,175.0,3304.9,165.2,392.5,2705.8,3290.7,291.6,70.2
0.079798,394.2,412.3,2702.5,162.4,3306.9,180.2,394.5,2686.6,3282.6,290.2,69.6
0.081798,398.0,424.0,2689.4,151.8,3304.5,195.1,395,2671.2,3275.4,288.7,69.1
0.083798,399.7,445.4,2679.2,142.9,3291.3,204.1,393.8,2660.9,3269.5,287.1,68.7
0.085798,400.6,472.5,2672.6,140.1,3268.1,205.1,391,2656.3,3265,285.5,68.4
0.087798,400.8,483.9,2671.6,149.3,3248.2,204.9,387,2657.7,3262.1,283.7,68.4
0.089798,394.7,454.1,2679.3,174.1,3247.1,217.0,382.1,2664.6,3260.8,281.9,68.5
0.091798,383.5,393.2,2695.5,205.0,3263.2,239.9,376.7,2676.2,3260.8,280.1,68.8
0.093798,373.2,329.4,2708.2,219.9,3275.3,259.7,371.4,2691.1,3261.8,278.2,69.3
0.095798,363.9,263.9,2709.6,218.1,3271.7,262.9,366.7,2707.3,3263.4,276.2,69.7
0.097798,356.1,204.7,2701.7,218.9,3256.3,242.2,363.4,2722.9,3265,274.2,70.1
0.099798,352.3,167.7,2686.5,234.2,3236.6,205.5,361.9,2735.6,3266.1,272.1,70.5
0.101798,353.6,153.6,2669.9,265.0,3223.3,172.6,362.7,2743.2,3266,270.1,70.8
0.103798,358.8,151.7,2659.2,304.2,3221.0,156.8,366.3,2743.8,3264.3,268,71
0.105798,366.5,153.3,2659.9,334.7,3230.7,158.9,372.7,2735.9,3260.5,265.9,71.2
0.107798,376.2,158.7,2670.1,337.7,3249.9,166.8,382.2,2718.6,3254.4,263.8,71.3
0.109798,388.5,174.0,2679.5,322.0,3268.0,165.1,394.5,2691.5,3246,261.8,71.3
0.111798,403.6,203.2,2682.3,319.6,3274.4,153.6,409.3,2655.2,3235.2,259.7,71.2
0.113798,420.4,246.8,2675.6,351.7,3267.1,141.0,426.3,2610.7,3222.4,257.8,71.2
0.115798,436.9,306.6,2652.9,421.6,3247.9,131.0,444.7,2559.8,3208.1,255.8,71.1
0.117798,453.3,394.5,2604.4,507.2,3220.5,119.9,463.7,2505,3192.9,253.9,71.1
0.119798,482.9,528.6,2537.3,567.8,3192.0,106.9,482.7,2448.9,3177.4,252.1,71.1
0.121798,550.6,649.9,2481.3,601.3,3169.0,98.7,500.6,2394.7,3162.6,250.4,71.2
0.123798,604.0,694.0,2455.6,647.6,3153.1,100.0,516.6,2345.2,3149.1,248.7,71.2
0.125798,624.2,730.9,2455.8,743.1,3140.2,111.5,529.9,2303.3,3137.7,247.1,71.2
0.127798,621.0,796.4,2465.8,947.1,3123.9,133.5,540,2271.5,3129.1,245.6,71.1
0.129798,562.9,978.8,2461.3,1458.0,3097.9,160.7,546.3,2251.6,3123.7,244.2,70.8
0.131798,273.5,663.2,1365.2,2250.2,3062.2,3699.3,548.4,2244.8,3121.8,242.8,70.5
