time,f1,b1,f2,b2,f3,b3,f1p,f2p,f3p,f0,intensity
0.025560,721.8,209.1,1185.9,165.0,2671.9,287.8,754.9,1264.4,2688.5,190.7,76.9
0.027560,728.6,165.2,1210.2,122.8,2689.7,229.9,757.2,1266.7,2688.1,190.9,77.5
0.029560,736.6,145.0,1234.4,100.6,2690.0,193.3,761,1270.3,2687.4,191.1,78.1
0.031560,746.9,135.5,1258.6,84.2,2685.6,164.5,766.2,1275.4,2686.5,191.3,78.5
0.033560,757.4,134.0,1278.4,71.6,2681.3,140.9,772.7,1282,2685.3,191.5,78.8
0.035560,768.1,138.7,1295.5,61.2,2677.9,120.0,780.2,1289.9,2683.9,191.8,79
0.037560,777.8,146.6,1309.5,53.6,2675.5,105.1,788.6,1299.2,2682.3,192,79.1
0.039560,786.2,154.6,1321.6,48.8,2673.8,96.6,797.6,1309.8,2680.6,192.3,79.2
0.041560,795.1,163.4,1334.4,46.5,2672.7,91.6,807,1321.7,2678.8,192.6,79.2
0.043560,805.0,173.8,1346.9,47.4,2672.3,87.1,816.6,1334.7,2676.9,192.9,79.2
0.045560,819.5,189.4,1361.0,52.3,2672.6,80.0,826.1,1349,2675.1,193.3,79.1
0.047560,843.9,209.1,1380.2,61.9,2673.0,69.7,835.2,1364.4,2673.2,193.6,79
0.049560,878.3,217.0,1407.5,71.2,2673.0,59.0,843.7,1380.8,2671.5,194,79
0.051560,908.3,201.9,1441.2,73.2,2673.6,52.0,851.3,1398.2,2670,194.4,78.9
0.053560,919.2,185.8,1469.0,71.1,2676.6,52.2,857.9,1416.5,2668.7,194.7,78.9
0.055560,919.5,174.7,1491.9,68.9,2681.9,58.3,863.1,1435.7,2667.7,195.2,78.9
0.057560,915.8,165.3,1509.5,67.6,2688.8,70.0,866.9,1455.7,2667,195.6,78.9
0.059560,911.0,156.1,1522.1,68.1,2696.4,86.2,869,1476.5,2666.8,196,78.9
0.061560,904.9,147.4,1531.9,71.9,2702.8,105.6,869.4,1498,2667.1,196.5,78.9
0.063560,895.8,142.2,1539.1,80.9,2703.2,118.4,868,1520.1,2667.9,196.9,78.9
0.065560,881.0,140.5,1544.5,97.6,2696.3,119.5,864.7,1542.7,2669.4,197.4,78.9
0.067560,861.6,140.1,1547.1,122.6,2686.2,115.8,859.7,1565.9,2671.5,197.9,78.9
0.069560,841.4,138.4,1548.4,154.3,2677.0,117.6,852.8,1589.6,2674.3,198.3,79
0.071560,822.1,134.1,1556.1,193.1,2668.5,127.7,844.2,1613.7,2677.9,198.8,79.1
0.073560,807.5,127.2,1583.0,230.0,2662.8,140.3,834,1638.1,2682.2,199.3,79.1
0.075560,797.3,118.7,1629.9,246.5,2660.8,143.6,822.4,1662.9,2687.4,199.8,79.3
0.077560,787.6,109.8,1683.0,232.4,2658.5,136.1,809.4,1687.9,2693.4,200.2,79.4
0.079560,776.5,103.9,1718.8,210.0,2654.0,133.1,795.4,1713.2,2700.2,200.7,79.4
0.081560,761.4,101.5,1740.9,199.9,2649.6,143.0,780.4,1738.7,2707.9,201.1,79.5
0.083560,742.6,101.2,1755.6,205.0,2649.4,165.3,764.8,1764.3,2716.3,201.6,79.6
0.085560,722.0,100.0,1768.2,226.0,2658.0,202.1,748.6,1790,2725.6,202,79.6
0.087560,700.1,97.0,1786.2,265.2,2680.2,261.9,732.3,1815.8,2735.5,202.5,79.7
0.089560,681.4,93.2,1814.0,308.9,2717.7,336.8,715.9,1841.6,2746.2,202.9,79.7
0.091560,664.0,87.8,1850.3,339.7,2776.2,420.8,699.7,1867.4,2757.4,203.3,79.8
0.093560,649.3,80.9,1880.5,344.9,2838.3,456.0,683.8,1893.1,2769.2,203.7,80
0.095560,638.5,73.5,1900.9,346.4,2872.5,417.2,668.5,1918.6,2781.4,204,80.2
0.097560,630.7,65.9,1921.9,358.5,2881.1,347.5,653.9,1944,2794,204.4,80.4
0.099560,625.0,59.0,1945.9,378.0,2878.5,295.1,640.1,1969.2,2806.8,204.7,80.6
0.101560,619.8,52.3,1978.3,402.1,2870.7,268.3,627.1,1994.1,2819.7,205,80.9
0.103560,615.5,47.2,2025.1,412.9,2858.3,263.2,615.1,2018.7,2832.6,205.3,81
0.105560,613.0,44.3,2076.2,388.3,2849.1,260.3,604.2,2043,2845.4,205.6,81.2
0.107560,612.0,43.6,2117.3,332.2,2849.5,244.1,594.2,2066.8,2858,205.8,81.2
0.109560,612.6,44.6,2140.1,271.6,2856.3,217.1,585.1,2090.1,2870.2,206,81.2
0.111560,614.0,46.7,2154.4,222.2,2868.2,191.1,577,2113,2881.9,206.2,81.1
0.113560,614.2,50.3,2165.9,198.7,2883.5,180.3,569.7,2135.2,2893,206.3,81
0.115560,611.9,56.3,2176.9,196.3,2895.5,185.4,563.1,2156.8,2903.4,206.4,80.9
0.117560,606.6,65.7,2191.7,198.8,2901.6,198.8,557.2,2177.8,2913,206.5,80.7
0.119560,599.3,76.6,2209.1,190.3,2902.3,209.4,551.7,2198,2921.6,206.5,80.6
0.121560,590.3,88.9,2227.7,169.6,2902.6,214.4,546.6,2217.4,2929.3,206.5,80.5
0.123560,580.2,100.5,2245.5,147.3,2906.6,217.3,541.8,2236.1,2935.9,206.5,80.4
0.125560,568.7,109.9,2261.5,130.8,2914.7,224.5,537,2253.9,2941.3,206.4,80.3
0.127560,553.3,117.5,2275.7,119.9,2924.1,241.8,532.1,2270.8,2945.6,206.3,80.3
0.129560,535.6,121.8,2286.1,114.6,2928.8,267.6,527.1,2286.9,2948.7,206.1,80.3
0.131560,515.8,122.0,2294.2,112.4,2927.4,294.8,521.8,2302,2950.5,205.9,80.3
0.133560,497.1,117.8,2300.8,111.9,2923.8,308.6,516.2,2316.2,2951.2,205.7,80.4
0.135560,481.8,110.9,2307.4,112.2,2924.7,312.1,510.1,2329.4,2950.7,205.4,80.5
0.137560,468.6,102.2,2316.2,113.5,2933.2,319.6,503.5,2341.7,2949.1,205.1,80.6
0.139560,458.3,93.9,2327.1,115.3,2946.1,331.7,496.5,2353.1,2946.4,204.8,80.7
0.141560,449.5,86.4,2341.3,117.5,2957.6,337.7,488.9,2363.5,2942.8,204.4,80.9
0.143560,442.2,80.3,2358.2,120.2,2962.4,328.8,480.9,2373,2938.2,204.1,81
0.145560,436.4,75.4,2376.4,121.6,2962.9,312.3,472.4,2381.6,2932.7,203.7,81.1
0.147560,431.1,70.9,2396.2,118.8,2963.1,297.2,463.6,2389.3,2926.6,203.2,81.2
0.149560,426.2,66.0,2411.7,112.1,2963.7,291.4,454.6,2396.2,2919.8,202.8,81.3
0.151560,420.7,59.6,2419.9,104.7,2963.7,297.4,445.4,2402.2,2912.5,202.4,81.3
0.153560,415.0,52.1,2419.6,99.3,2961.5,316.4,436.1,2407.5,2904.9,201.9,81.3
0.155560,410.2,45.0,2415.8,95.6,2954.3,344.0,427,2412.1,2897,201.4,81.3
0.157560,406.3,38.4,2412.5,94.9,2936.3,376.2,418.2,2416,2888.9,201,81.3
0.159560,403.9,33.5,2410.2,101.0,2907.1,406.1,409.7,2419.3,2880.9,200.5,81.3
0.161560,402.2,29.9,2406.6,120.1,2868.0,438.3,401.7,2422,2872.9,200,81.3
0.163560,401.0,27.6,2400.0,156.3,2826.4,466.2,394.4,2424.2,2865.1,199.5,81.2
0.165560,399.9,26.5,2388.9,204.7,2789.6,464.0,387.8,2425.9,2857.6,199.1,81.2
0.167560,398.7,26.2,2373.2,253.9,2764.5,417.5,382.1,2427.2,2850.5,198.6,81.2
0.169560,397.6,26.5,2365.8,277.0,2757.3,361.0,377.4,2428.1,2843.8,198.2,81.1
0.171560,396.6,26.7,2380.4,268.5,2761.0,322.2,373.6,2428.7,2837.6,197.7,81
0.173560,396.0,26.7,2411.8,231.5,2774.4,308.1,370.9,2429,2831.9,197.3,80.9
0.175560,395.7,26.7,2445.2,178.7,2799.5,300.0,369.3,2429.1,2826.8,196.9,80.8
0.177560,395.8,27.2,2469.5,135.6,2829.0,287.0,368.7,2429,2822.3,196.4,80.7
0.179560,395.9,28.4,2485.0,110.3,2854.0,274.2,369.2,2428.7,2818.4,196,80.5
0.181560,395.9,30.3,2494.3,97.1,2870.6,266.4,370.6,2428.3,2815,195.6,80.3
0.183560,396.0,32.6,2497.4,94.0,2873.8,266.2,372.8,2427.8,2812.2,195.3,80
0.185560,396.3,35.6,2495.1,98.4,2863.8,269.3,375.9,2427.3,2810,194.9,79.8
0.187560,396.8,39.3,2487.5,109.3,2845.1,266.1,379.5,2426.7,2808.2,194.5,79.5
0.189560,397.5,42.7,2475.7,123.3,2826.8,251.4,383.7,2426.1,2806.9,194.2,79.2
0.191560,397.8,44.8,2459.3,138.0,2812.6,224.8,388.2,2425.5,2806,193.8,78.8
0.193560,397.6,44.2,2440.0,146.6,2804.3,189.8,393,2425,2805.4,193.5,78.5
0.195560,397.0,41.8,2422.1,143.1,2801.4,154.8,397.7,2424.4,2805,193.2,78.1
0.197560,396.4,38.7,2410.4,125.9,2801.8,125.8,402.4,2424,2804.9,192.9,77.6
0.199560,395.7,35.7,2407.6,102.9,2803.0,108.5,406.8,2423.5,2805,192.6,77.1
0.201560,395.1,33.0,2407.8,82.0,2803.2,99.5,410.7,2423.1,2805.1,192.3,76.5
0.203560,394.5,30.7,2406.2,70.4,2801.6,98.3,414.2,2422.8,2805.3,192.1,75.8
0.205560,394.3,29.3,2401.1,67.6,2798.5,102.8,417,2422.6,2805.5,191.8,74.9
0.207560,395.3,29.8,2390.9,72.6,2793.1,109.7,419,2422.4,2805.6,191.5,73.8
0.209560,397.8,33.0,2375.4,85.0,2788.8,111.9,420.3,2422.3,2805.7,191.3,72.4
0.211560,401.9,41.5,2353.1,105.3,2790.5,103.9,420.7,2422.2,2805.8,191.1,70.9
