time,f1,b1,f2,b2,f3,b3,f1p,f2p,f3p,f0,intensity
0.025440,316.8,20.1,2311.0,266.9,2865.7,186.8,313,2321.8,2874.2,154.4,73
0.027440,315.3,19.9,2306.7,263.8,2866.8,188.2,313,2322.2,2874.2,154.2,72.7
0.029440,314.0,20.0,2301.8,235.0,2867.6,182.1,312.9,2322.9,2874.3,153.9,72.3
0.031440,312.7,20.7,2298.7,190.6,2865.8,165.2,312.9,2323.8,2874.3,153.7,71.9
0.033440,311.1,22.7,2299.5,158.7,2861.3,149.9,312.9,2324.9,2874.3,153.4,71.4
0.035440,309.5,26.3,2303.0,145.9,2856.0,143.7,312.8,2326.3,2874.4,153.1,70.8
0.037440,309.0,31.2,2307.4,151.0,2850.7,147.7,312.7,2327.8,2874.4,152.8,70.2
0.039440,309.4,38.0,2311.4,170.2,2846.8,156.6,312.7,2329.6,2874.4,152.5,69.4
0.041440,309.8,46.4,2314.9,189.8,2847.9,157.6,312.6,2331.6,2874.5,152.2,68.7
0.043440,310.3,55.0,2319.1,193.4,2855.6,145.3,312.6,2333.8,2874.5,151.8,67.9
0.045440,311.0,63.3,2325.9,182.1,2864.9,130.0,312.5,2336.2,2874.5,151.5,67.2
0.047440,311.9,72.3,2335.5,167.8,2870.9,122.0,312.4,2338.6,2874.5,151.2,66.6
0.049440,313.1,82.9,2346.7,158.2,2871.4,124.9,312.4,2341.3,2874.5,150.8,66.1
0.051440,314.9,94.4,2357.2,156.2,2867.5,137.9,312.3,2344,2874.5,150.5,65.9
0.053440,316.2,106.5,2365.6,158.2,2862.4,155.5,312.3,2346.8,2874.4,150.1,65.7
0.055440,316.0,113.4,2370.4,159.4,2860.3,167.5,312.3,2349.7,2874.3,149.7,65.8
0.057440,314.8,112.9,2372.1,158.4,2862.9,168.7,312.3,2352.6,2874.2,149.4,66
0.059440,313.4,109.1,2372.9,155.8,2868.7,160.6,312.3,2355.5,2874.1,149,66.3
0.061440,312.2,103.3,2376.2,151.4,2876.1,148.6,312.3,2358.4,2873.9,148.6,66.6
0.063440,310.7,95.2,2384.5,148.0,2884.7,139.4,312.4,2361.3,2873.6,148.2,66.8
0.065440,308.8,88.1,2397.7,150.3,2894.0,138.1,312.5,2364.2,2873.4,147.7,67.1
0.067440,307.5,83.6,2412.7,159.8,2901.8,145.1,312.6,2366.9,2873,147.3,67.3
0.069440,307.3,79.3,2425.8,173.7,2905.2,156.8,312.7,2369.6,2872.6,146.8,67.5
0.071440,306.7,74.8,2433.4,187.5,2902.9,167.9,312.9,2372.1,2872.2,146.3,67.5
0.073440,305.6,71.8,2433.8,199.5,2895.7,174.6,313.1,2374.4,2871.6,145.8,67.6
0.075440,306.2,71.6,2423.1,209.0,2886.0,173.6,313.4,2376.6,2871.1,145.2,67.5
0.077440,309.4,74.4,2402.2,218.4,2877.2,169.4,313.7,2378.6,2870.4,144.6,67.4
0.079440,313.5,79.2,2379.2,227.5,2871.9,167.9,314.1,2380.4,2869.7,144,67.3
0.081440,317.1,83.2,2363.1,235.8,2869.0,169.9,314.4,2381.9,2868.9,143.3,67.1
0.083440,319.9,84.0,2353.4,245.9,2865.0,172.9,314.9,2383.1,2868,142.5,67
0.085440,321.4,82.0,2344.8,257.8,2857.9,174.8,315.4,2384.1,2867,141.7,66.8
0.087440,322.5,77.7,2338.3,264.1,2851.4,173.3,315.9,2384.8,2866,140.9,66.7
0.089440,324.6,71.9,2342.1,259.1,2854.1,168.5,316.5,2385.2,2864.8,139.9,66.5
0.091440,327.5,67.2,2355.0,250.6,2865.7,161.8,317.1,2385.2,2863.6,138.9,66.4
0.093440,328.9,67.0,2366.5,248.7,2877.0,155.2,317.8,2385,2862.3,137.8,66.3
0.095440,327.8,72.1,2366.1,257.4,2879.7,151.3,318.5,2384.3,2861,136.6,66.3
0.097440,324.7,80.5,2351.4,277.1,2873.7,152.1,319.3,2383.4,2859.5,135.3,66.2
0.099440,320.6,90.4,2326.3,308.4,2863.4,158.6,320.1,2382,2858,133.9,66.2
0.101440,316.9,98.7,2298.8,344.0,2854.5,168.0,321,2380.3,2856.4,132.3,66.2
0.103440,314.9,102.4,2281.8,369.8,2851.3,176.2,321.9,2378.3,2854.7,130.7,66.1
0.105440,314.6,104.7,2285.3,381.6,2851.0,188.8,322.9,2375.9,2853,129,65.9
0.107440,315.4,113.5,2316.2,376.4,2849.7,217.0,323.9,2373.1,2851.2,127.1,65.6
0.109440,318.2,128.7,2357.0,349.7,2850.7,248.7,324.9,2370,2849.3,125.2,65.3
0.111440,324.9,142.4,2385.7,317.0,2856.2,261.7,326,2366.5,2847.4,123.1,64.9
0.113440,335.3,151.5,2399.5,298.7,2861.9,260.3,327.2,2362.7,2845.5,121,64.6
0.115440,345.5,157.7,2404.5,296.8,2864.5,261.5,328.3,2358.6,2843.5,118.7,64.3
0.117440,351.9,157.3,2405.3,301.1,2865.2,266.4,329.5,2354.1,2841.4,116.4,64.1
0.119440,353.9,151.0,2407.5,303.5,2869.9,268.2,330.7,2349.4,2839.3,114,63.9
0.121440,353.1,148.6,2415.6,304.9,2882.4,264.5,331.9,2344.3,2837.2,111.6,63.7
0.123440,351.0,155.6,2427.9,304.6,2897.2,253.7,333.2,2339.1,2835.1,109.1,63.5
0.125440,348.3,164.2,2435.2,299.0,2905.5,236.1,334.4,2333.5,2833,106.6,63.3
0.127440,345.9,167.4,2427.8,294.8,2904.2,213.1,335.7,2327.8,2830.9,104.1,63.2
0.129440,343.8,168.6,2400.1,302.7,2895.2,189.2,336.9,2321.8,2828.8,0,63
0.131440,341.1,168.7,2351.3,317.7,2883.4,166.4,338.2,2315.7,2826.7,99.3,62.8
0.133440,336.7,164.9,2299.4,328.6,2873.1,154.2,339.5,2309.5,2824.7,97,62.7
0.135440,330.2,162.5,2263.7,340.2,2859.8,162.4,340.7,2303.1,2822.6,94.7,62.6
0.137440,322.9,167.0,2247.9,349.6,2834.8,187.3,341.9,2296.7,2820.7,92.7,62.5
0.139440,318.4,169.6,2244.5,355.9,2794.2,217.4,343.2,2290.1,2818.7,90.7,62.3
0.141440,319.3,158.9,2240.2,376.1,2746.2,242.5,344.3,2283.6,2816.9,89,62.1
0.143440,324.2,146.8,2238.6,415.0,2714.0,264.7,345.5,2277.1,2815.1,87.4,61.8
0.145440,331.0,148.2,2257.6,470.8,2708.2,301.0,346.6,2270.6,2813.4,86,61.4
0.147440,336.5,157.7,2304.4,517.1,2716.6,350.6,347.7,2264.1,2811.8,84.9,61
0.149440,337.6,160.7,2366.3,498.0,2742.6,420.0,348.7,2257.8,2810.3,84,60.6
0.151440,333.6,155.7,2394.1,420.2,2806.0,463.2,349.7,2251.6,2809,83.3,60.3
0.153440,328.4,153.0,2381.8,385.5,2858.6,435.3,350.6,2245.6,2807.7,82.9,60.1
0.155440,325.9,159.8,2352.4,407.2,2869.8,400.7,351.4,2239.7,2806.6,82.8,59.8
0.157440,326.4,181.9,2310.3,462.1,2854.3,368.5,352.2,2234.1,2805.6,82.9,59.5
0.159440,327.5,228.4,2249.4,513.8,2829.3,319.1,352.9,2228.8,2804.8,83.4,59.2
0.161440,327.4,296.3,2191.4,524.0,2806.5,268.5,353.6,2223.7,2804.1,84,58.9
0.163440,328.9,338.8,2167.1,509.2,2786.2,247.4,354.2,2218.9,2803.5,85,58.8
0.165440,334.1,308.1,2172.9,479.8,2761.9,256.2,354.6,2214.5,2803.2,86.2,58.7
0.167440,333.5,250.1,2191.4,434.8,2734.8,271.0,355.1,2210.4,2803,87.6,58.8
0.169440,326.5,204.3,2202.8,400.6,2706.0,278.7,355.4,2206.7,2803,89.3,58.9
0.171440,318.5,181.4,2203.0,402.8,2679.9,280.9,355.6,2203.5,2803.1,91.1,59.1
0.173440,312.0,186.7,2192.0,467.0,2655.0,286.3,355.8,2200.6,2803.5,93.2,59.2
0.175440,306.0,227.2,2135.3,620.3,2629.4,275.0,355.8,2198.2,2804.1,95.4,59.3
0.177440,299.9,284.3,1973.3,703.2,2628.6,231.1,355.8,2196.3,2804.8,97.8,59.3
0.179440,301.4,308.8,1817.2,543.9,2653.4,194.2,355.7,2194.8,2805.7,100.3,59.3
0.181440,307.7,329.1,1738.4,372.2,2672.7,176.5,355.5,2193.9,2806.9,0,59.2
0.183440,299.7,419.1,1699.5,295.1,2677.0,178.2,355.2,2193.4,2808.2,0,59.2
0.185440,242.1,606.7,1684.0,295.2,2686.6,193.6,354.8,2193.5,2809.7,0,59.2
0.191440,1825.5,573.2,2764.7,209.6,3922.1,510.8,354.3,2194,2811.4,116.7,59.2
0.193440,194.5,651.7,1990.1,637.2,2777.2,217.8,353.8,2195.1,2813.3,119.5,59.1
0.195440,277.9,433.2,2178.5,595.9,2794.3,235.8,353.1,2196.7,2815.5,122.1,59
0.197440,296.6,352.4,2310.7,499.7,2818.9,252.5,352.4,2198.9,2817.7,124.8,59
0.199440,303.1,350.1,2373.7,439.3,2839.5,259.6,351.6,2201.5,2820.2,127.3,59
0.201440,307.2,362.3,2393.4,419.4,2846.8,261.0,350.7,2204.7,2822.9,129.8,59.1
0.203440,310.5,350.2,2385.5,435.6,2837.6,269.7,349.7,2208.4,2825.7,132.1,59.3
0.205440,313.8,302.0,2368.2,482.9,2816.4,296.2,348.7,2212.6,2828.7,134.4,59.4
0.207440,317.0,240.6,2359.4,532.7,2797.4,335.9,347.6,2217.2,2831.9,136.5,59.6
0.209440,319.0,192.2,2368.3,507.0,2809.6,354.5,346.4,2222.4,2835.2,138.6,59.9
0.211440,319.9,161.7,2375.7,413.4,2841.3,307.7,345.2,2228,2838.6,140.5,60.3
0.213440,319.8,144.2,2375.0,345.6,2856.6,251.7,343.9,2234,2842.2,142.4,60.7
0.215440,318.3,133.0,2367.8,316.9,2864.0,218.6,342.6,2240.4,2845.9,144.1,61.2
0.217440,314.5,119.3,2355.1,310.6,2871.8,197.9,341.2,2247.3,2849.8,145.7,61.7
0.219440,309.9,99.3,2340.4,322.1,2876.8,188.3,339.8,2254.5,2853.7,147.3,62.3
0.221440,306.3,79.6,2320.0,366.7,2870.2,199.0,338.4,2262.1,2857.8,148.8,62.8
0.223440,304.1,66.7,2278.1,453.8,2844.1,223.1,337,2269.9,2861.9,150.2,63.2
0.225440,303.1,61.2,2228.3,529.3,2816.5,226.9,335.5,2278.1,2866.1,151.6,63.5
0.227440,302.8,57.6,2206.8,571.3,2812.6,218.0,334,2286.6,2870.4,152.9,63.9
0.229440,303.1,53.4,2214.6,589.2,2831.3,204.5,332.5,2295.2,2874.7,154.1,64.1
0.231440,304.1,48.7,2227.1,595.9,2855.5,181.1,331.1,2304.1,2879.1,155.4,64.4
0.233440,306.6,44.5,2231.3,606.5,2871.2,155.3,329.6,2313.2,2883.5,156.6,64.5
0.235440,310.9,40.1,2224.7,621.9,2879.4,134.7,328.1,2322.4,2887.9,157.8,64.7
0.237440,315.4,35.6,2215.9,643.1,2887.2,125.1,326.7,2331.7,2892.4,159,64.9
0.239440,318.8,32.6,2243.7,675.7,2903.5,141.5,325.3,2341.1,2896.8,160.2,65.2
0.241440,321.0,31.9,2344.2,671.2,2935.6,206.8,323.9,2350.5,2901.2,161.4,65.6
0.243440,322.3,31.7,2453.4,578.9,2978.9,317.5,322.5,2360,2905.5,162.6,66
0.245440,322.5,30.2,2529.8,460.9,3027.9,457.9,321.2,2369.4,2909.9,163.8,66.6
0.247440,322.0,27.6,2563.3,362.4,3063.7,568.5,320,2378.8,2914.1,165.1,67.1
0.249440,321.1,24.6,2562.2,304.6,3041.3,587.6,318.8,2388.1,2918.3,166.4,67.5
0.251440,320.4,22.0,2548.5,278.8,3003.3,542.6,317.6,2397.3,2922.5,167.8,67.8
0.253440,320.2,20.5,2525.7,294.5,2960.5,515.4,316.5,2406.4,2926.5,169.1,68.1
0.255440,320.5,21.5,2470.6,360.8,2895.0,464.1,315.5,2415.3,2930.5,170.5,68.3
0.257440,321.5,26.7,2369.3,402.6,2859.1,372.5,314.5,2424,2934.3,172,68.4
0.259440,324.0,36.5,2283.1,381.2,2858.0,328.6,313.6,2432.5,2938.1,173.4,68.4
0.261440,327.3,48.9,2239.2,352.2,2870.4,317.8,312.8,2440.7,2941.7,174.9,68.4
0.263440,329.4,57.3,2230.6,338.8,2885.7,312.6,312.1,2448.7,2945.2,176.4,68.3
0.265440,329.0,57.7,2245.1,336.5,2901.7,303.9,311.4,2456.4,2948.5,177.9,68.1
0.267440,325.9,50.7,2283.0,337.6,2920.1,292.0,310.8,2463.8,2951.7,179.4,68
0.269440,321.5,41.5,2347.6,324.7,2943.6,277.0,310.3,2470.9,2954.7,180.9,67.7
0.271440,317.9,36.1,2424.4,276.5,2971.5,262.2,309.9,2477.6,2957.6,182.3,67.4
0.273440,316.7,40.4,2483.3,222.1,2999.5,254.9,309.6,2484,2960.4,183.8,67.1
0.275440,317.6,56.6,2519.5,214.7,3015.7,259.2,309.3,2490.1,2962.9,185.1,66.8
0.277440,316.7,75.7,2542.1,265.1,3014.4,277.0,309.2,2495.7,2965.3,186.4,66.6
0.279440,310.4,86.7,2550.5,334.1,3005.6,314.0,309.1,2501,2967.6,187.6,66.4
0.281440,302.6,91.0,2545.0,384.9,2994.7,373.9,309,2505.8,2969.6,188.7,66.3
0.283440,296.9,94.3,2538.6,398.2,2986.7,420.2,309.1,2510.3,2971.5,189.7,66.3
0.285440,291.6,95.6,2551.7,383.2,2993.7,379.0,309.2,2514.4,2973.2,190.6,66.3
0.287440,286.2,91.0,2600.4,354.9,3008.5,306.0,309.4,2518.1,2974.8,191.3,66.4
0.289440,283.1,85.8,2659.2,313.8,3022.2,271.0,309.7,2521.5,2976.1,192,66.5
0.291440,284.2,86.7,2697.6,275.2,3033.5,255.2,310,2524.4,2977.3,192.4,66.5
0.293440,291.4,94.4,2715.5,253.7,3041.4,246.2,310.4,2526.9,2978.3,192.8,66.4
0.295440,306.2,102.7,2721.9,255.2,3046.0,247.7,310.9,2529.1,2979.2,193,66.1
0.297440,323.6,103.6,2723.7,295.2,3045.3,273.7,311.4,2530.9,2979.9,193,65.8
0.299440,335.2,98.5,2733.4,415.9,3031.5,357.0,312,2532.4,2980.5,193,65.4
0.301440,337.3,94.5,2795.5,560.2,2989.9,594.7,312.6,2533.5,2980.8,192.8,64.9
0.303440,334.6,96.0,2763.5,411.9,3223.2,1141.6,313.2,2534.3,2981.1,192.4,64.5
0.305440,330.5,99.7,1816.0,3170.1,2706.4,299.8,313.9,2534.7,2981.2,192,64
0.307440,329.6,96.0,1823.5,2592.5,2685.3,231.2,314.6,2534.9,2981.2,191.4,63.7
0.309440,334.7,80.1,1916.0,2415.5,2684.0,198.2,315.3,2534.8,2981,190.8,63.4
0.311440,342.5,60.2,2055.0,2352.9,2691.7,188.2,316,2534.5,2980.7,190.1,63.4
0.313440,347.1,47.0,2272.0,2518.2,2701.0,202.4,316.8,2533.9,2980.3,189.3,63.6
0.315440,346.1,43.2,2703.9,257.9,3183.2,1161.5,317.5,2533.1,2979.8,188.4,63.9
0.317440,340.5,46.5,2674.0,376.4,2987.5,637.0,318.2,2532.1,2979.2,187.5,64.2
0.319440,331.4,52.5,2613.7,431.3,2988.4,368.5,319,2530.9,2978.5,186.6,64.5
0.321440,321.6,56.2,2594.1,435.7,2982.8,277.7,319.7,2529.6,2977.7,185.6,64.7
0.323440,314.0,57.2,2586.4,413.7,2977.8,234.7,320.4,2528.1,2976.8,184.6,64.7
0.325440,311.0,57.2,2579.1,373.3,2978.7,208.2,321.1,2526.5,2975.9,183.6,64.7
0.327440,311.4,57.9,2575.2,341.8,2981.2,195.7,321.7,2524.9,2974.9,182.6,64.7
0.329440,312.3,59.8,2583.1,354.3,2980.1,210.1,322.4,2523.2,2973.9,181.5,64.7
0.331440,311.4,60.9,2632.7,461.4,2966.7,284.3,322.9,2521.4,2972.8,180.5,64.7
0.333440,310.1,60.8,2813.9,3712.8,2833.0,803.4,323.5,2519.6,2971.7,179.5,64.7
0.335440,310.8,64.0,2802.6,1023.8,2878.7,309.3,323.9,2517.8,2970.5,178.5,64.7
0.337440,313.5,70.8,2667.2,594.6,2945.6,319.2,324.4,2516.1,2969.4,177.5,64.8
0.339440,315.6,78.1,2626.2,420.7,2980.4,270.8,324.8,2514.4,2968.2,176.5,64.8
0.341440,315.7,82.9,2615.9,335.8,2995.9,237.5,325.1,2512.7,2967,175.5,64.8
0.343440,314.2,80.6,2614.6,288.5,3006.9,215.9,325.3,2511.1,2965.8,174.5,64.8
0.345440,313.3,71.3,2614.7,263.8,3016.3,201.0,325.5,2509.6,2964.7,173.6,64.9
0.347440,314.3,61.7,2609.1,264.8,3021.2,191.4,325.7,2508.2,2963.5,172.7,65
0.349440,316.4,54.6,2586.2,318.9,3015.6,196.5,325.7,2506.9,2962.4,171.7,65.3
0.351440,317.7,46.0,2542.4,461.3,3003.1,239.3,325.7,2505.8,2961.3,170.8,65.7
0.353440,319.9,37.8,2482.8,645.8,2990.0,320.3,325.6,2504.8,2960.2,170,66.2
0.355440,323.8,32.4,2390.7,725.1,2967.2,376.5,325.5,2503.9,2959.2,169.1,66.7
0.357440,327.7,28.8,2337.0,669.5,2943.4,371.0,325.3,2503.3,2958.2,168.3,67.2
0.359440,329.4,26.2,2325.4,618.0,2933.8,347.6,325,2502.7,2957.3,167.4,67.7
0.361440,328.9,23.9,2333.3,579.1,2930.4,335.3,324.6,2502.4,2956.4,166.6,68.2
0.363440,327.1,21.3,2362.9,541.6,2932.6,348.1,324.2,2502.2,2955.5,165.9,68.6
0.365440,325.0,18.8,2412.9,489.4,2954.8,394.8,323.7,2502.2,2954.7,165.1,69
0.367440,322.8,16.9,2457.0,403.4,3016.5,415.6,323.1,2502.4,2954,164.4,69.3
0.369440,320.5,15.7,2471.9,325.4,3060.9,349.1,322.5,2502.8,2953.3,163.7,69.6
0.371440,318.6,14.6,2473.3,282.2,3059.2,282.3,321.8,2503.3,2952.7,163.1,69.9
0.373440,317.2,13.7,2473.4,260.8,3034.5,233.8,321,2504.1,2952.1,162.4,70
0.375440,315.7,13.3,2476.9,250.3,3009.5,198.2,320.3,2504.9,2951.6,161.8,70.2
0.377440,314.2,13.6,2487.3,244.9,2994.8,177.0,319.4,2506,2951.1,161.3,70.3
0.379440,313.1,14.3,2503.2,243.0,2990.7,172.6,318.5,2507.2,2950.8,160.7,70.3
0.381440,312.5,14.9,2520.6,241.3,2991.0,180.8,317.6,2508.5,2950.4,160.2,70.3
0.383440,312.5,15.2,2531.2,231.6,2989.5,191.1,316.6,2510,2950.1,159.7,70.3
0.385440,312.8,14.9,2530.6,211.7,2982.4,193.1,315.6,2511.6,2949.9,159.3,70.2
0.387440,312.9,14.4,2525.9,191.7,2972.6,190.9,314.6,2513.3,2949.7,158.8,70.2
0.389440,312.7,14.2,2524.0,184.5,2963.4,193.2,313.6,2515.1,2949.6,158.4,70.1
0.391440,312.8,14.8,2525.3,198.2,2955.8,202.6,312.5,2517,2949.5,158,70
0.393440,313.0,16.4,2527.6,233.3,2949.4,216.8,311.5,2519,2949.4,157.7,70
0.395440,313.0,18.7,2530.7,275.0,2946.8,231.0,310.4,2521,2949.4,157.3,70
0.397440,312.8,20.3,2536.9,293.2,2955.1,239.2,309.3,2523.1,2949.4,157,70
0.399440,312.2,20.4,2546.7,281.9,2974.6,237.2,308.3,2525.1,2949.5,156.7,70
0.401440,311.0,19.1,2557.2,251.2,2993.6,222.0,307.2,2527.2,2949.5,156.4,70
0.403440,309.6,17.6,2565.2,212.3,3000.3,200.4,306.2,2529.3,2949.6,156.1,69.9
0.405440,308.4,16.8,2568.4,175.5,2993.3,179.9,305.2,2531.4,2949.8,155.8,69.8
0.407440,306.9,17.0,2566.9,150.1,2977.8,162.5,304.2,2533.4,2949.9,155.5,69.7
0.409440,305.2,17.6,2563.6,137.3,2964.5,149.2,303.3,2535.4,2950,155.3,69.5
0.411440,303.9,17.8,2561.6,134.7,2960.7,144.5,302.4,2537.4,2950.2,155,69.3
0.413440,302.6,17.3,2561.9,141.1,2967.2,152.1,301.5,2539.2,2950.3,154.7,69
0.415440,301.6,16.9,2564.1,157.8,2981.5,173.1,300.7,2541,2950.5,154.5,68.6
0.417440,301.9,18.6,2568.3,193.0,2993.9,204.7,300,2542.6,2950.7,154.2,68.1
0.419440,303.3,24.4,2578.3,272.0,2990.9,245.3,299.3,2544.1,2950.8,154,67.7
0.421440,305.3,36.7,2603.3,423.7,2963.4,282.3,298.7,2545.5,2951,153.7,67.1
0.423440,308.6,60.9,2659.4,708.6,2910.9,283.5,298.1,2546.8,2951.1,153.5,66.6
0.425440,312.8,104.8,2714.5,1349.9,2871.5,215.2,297.6,2547.9,2951.2,153.3,66.1
0.427440,314.6,171.5,2382.5,1972.7,2860.0,168.8,297.2,2548.8,2951.3,153,65.6
0.429440,309.7,249.4,2343.3,2053.5,2858.6,153.5,296.9,2549.6,2951.4,152.8,65.1
0.431440,298.6,299.6,2472.3,1917.7,2862.2,158.4,296.6,2550.2,2951.5,152.6,64.6
0.433440,287.4,279.7,2522.0,1695.4,2865.3,180.0,296.4,2550.7,2951.5,152.4,64.1
0.435440,278.7,225.9,2528.5,1496.9,2860.4,208.2,296.3,2551,2951.6,152.2,63.5
0.437440,269.7,194.5,2521.0,1403.5,2841.5,220.3,296.2,2551.1,2951.6,152,63
