time,f1,b1,f2,b2,f3,b3,f1p,f2p,f3p,f0,intensity
0.025932,399.0,168.5,2088.3,349.0,2701.9,168.5,423.4,2052.8,2728.4,210.8,73.2
0.027932,416.9,128.4,2090.4,362.3,2703.8,168.6,424.1,2053.9,2727.3,210.7,74.5
0.029932,428.0,90.8,2070.9,383.3,2699.5,176.8,425.2,2055.8,2725.6,210.6,75.6
0.031932,432.4,64.1,2035.2,394.6,2692.5,190.6,426.8,2058.6,2723.2,210.4,76.5
0.033932,433.9,48.6,2005.8,382.0,2693.2,203.0,428.8,2062.1,2720.3,210.2,77.2
0.035932,435.2,39.9,1997.3,356.8,2707.0,203.0,431,2066.6,2716.9,210,77.6
0.037932,437.5,36.0,2010.6,337.8,2722.3,186.9,433.5,2072,2713.3,209.7,77.9
0.039932,440.2,35.1,2037.8,326.1,2731.1,168.2,436.1,2078.3,2709.5,209.4,77.9
0.041932,442.4,35.6,2070.3,314.9,2734.4,153.1,438.8,2085.6,2705.8,209.1,77.7
0.043932,443.1,36.5,2103.1,304.6,2734.1,142.9,441.4,2094,2702.2,208.7,77.3
0.045932,442.6,37.3,2135.6,302.2,2730.5,139.7,443.9,2103.4,2698.9,208.3,76.7
0.047932,442.3,38.1,2167.5,310.1,2725.0,144.2,446.2,2114,2696.1,207.8,76
0.049932,443.2,40.2,2195.8,314.5,2719.3,151.0,448.3,2125.7,2693.9,207.3,75.1
0.051932,445.6,46.0,2202.3,290.9,2716.4,146.8,449.9,2138.5,2692.5,206.7,74.1
0.053932,448.9,58.1,2193.3,253.0,2715.7,134.5,451.1,2152.4,2692,206.2,73.1
0.055932,453.1,77.2,2189.0,234.8,2713.1,130.2,451.8,2167.4,2692.4,205.5,72.1
0.057932,458.0,97.7,2193.1,248.9,2703.7,139.8,451.9,2183.3,2694,204.9,71
0.059932,460.0,108.0,2200.9,291.8,2686.0,158.4,451.5,2200.3,2696.7,0,70
0.061932,456.1,108.6,2207.9,342.0,2667.9,176.1,450.5,2218.1,2700.5,0,69.1
0.063932,449.5,113.0,2219.7,365.0,2663.8,196.6,448.8,2236.6,2705.5,0,68.3
0.065932,446.4,130.0,2241.6,336.7,2685.5,216.1,446.6,2255.8,2711.7,0,67.8
0.067932,448.7,148.6,2261.8,289.0,2717.4,208.0,443.9,2275.4,2719,0,67.5
0.069932,450.5,144.0,2276.2,255.8,2736.9,186.0,440.6,2295.4,2727.4,0,67.4
0.071932,446.7,125.2,2289.7,238.0,2748.1,171.0,436.9,2315.6,2736.7,0,67.4
0.073932,440.5,114.1,2304.9,230.0,2758.2,164.3,432.8,2335.8,2746.9,0,67.4
0.075932,434.6,116.5,2322.2,232.7,2768.2,165.4,428.5,2355.8,2757.8,0,67.3
0.077932,427.9,130.7,2347.1,249.9,2777.0,175.8,423.8,2375.6,2769.3,0,67.3
0.079932,419.0,138.5,2383.3,268.8,2780.8,188.9,419.1,2394.8,2781.2,0,67.4
0.081932,408.6,116.7,2422.7,264.6,2781.5,193.9,414.3,2413.4,2793.5,0,67.6
0.083932,399.0,85.0,2454.0,244.9,2784.0,197.4,409.6,2431.3,2805.9,196.7,67.8
0.085932,390.6,65.3,2475.7,233.7,2789.1,212.2,405,2448.2,2818.3,196.4,68.1
0.087932,383.9,57.2,2489.7,241.9,2794.7,242.8,400.6,2464.2,2830.6,196.1,68.4
0.089932,378.9,54.7,2497.8,268.0,2800.7,288.8,396.5,2479,2842.7,195.9,68.7
0.091932,376.3,53.2,2498.0,296.1,2810.5,340.1,392.9,2492.7,2854.3,195.7,68.9
0.093932,376.0,49.6,2496.2,306.2,2832.9,397.5,389.6,2505.3,2865.5,195.6,69.1
0.095932,377.6,44.7,2496.6,291.5,2880.3,432.0,386.8,2516.6,2876.2,195.6,69.3
0.097932,380.3,40.4,2499.2,267.7,2928.1,395.4,384.5,2526.7,2886.2,195.6,69.5
0.099932,383.2,37.4,2512.3,251.8,2953.4,369.5,382.8,2535.6,2895.6,195.7,69.6
0.101932,385.5,36.0,2534.5,234.4,2966.1,377.3,381.6,2543.5,2904.4,195.8,69.7
0.103932,387.6,36.6,2554.3,213.3,2965.2,387.7,380.9,2550.3,2912.5,196,69.8
0.105932,390.1,38.9,2565.4,203.7,2948.5,381.6,380.7,2556.2,2919.9,196.2,69.8
0.107932,393.3,42.1,2573.1,202.3,2930.9,359.5,380.9,2561.2,2926.8,196.4,69.9
0.109932,396.7,45.2,2580.6,192.1,2928.0,325.4,381.6,2565.5,2933.1,196.7,69.9
0.111932,399.0,46.9,2586.1,167.4,2936.7,285.1,382.7,2569.2,2939,197,70
0.113932,399.6,46.3,2587.9,140.1,2943.6,248.9,384,2572.5,2944.4,197.2,70.1
0.115932,399.0,43.1,2587.5,119.2,2944.1,225.6,385.6,2575.4,2949.6,197.5,70.2
0.117932,397.7,37.9,2586.5,103.7,2940.1,212.6,387.3,2578.1,2954.5,197.8,70.3
0.119932,396.3,32.6,2586.5,92.2,2937.2,205.4,389.2,2580.7,2959.3,198.1,70.4
0.121932,395.0,29.0,2588.4,82.2,2941.6,198.9,391,2583.3,2964,198.3,70.6
0.123932,393.4,27.5,2591.1,73.0,2951.8,193.4,392.8,2586,2968.7,198.5,70.7
0.125932,391.3,27.4,2592.9,65.5,2962.8,195.7,394.5,2588.7,2973.5,198.8,70.9
0.127932,389.2,28.0,2593.3,60.1,2973.2,210.9,396,2591.7,2978.4,198.9,71
0.129932,388.6,28.9,2593.3,56.6,2984.1,234.3,397.3,2594.8,2983.5,199.1,71.2
0.131932,389.6,29.8,2593.8,55.0,2996.9,251.2,398.4,2598.1,2988.7,199.2,71.2
0.133932,391.3,30.1,2594.6,56.1,3006.2,245.3,399.1,2601.5,2994,199.3,71.3
0.135932,392.1,29.5,2595.0,59.5,3009.2,223.9,399.6,2605,2999.4,199.4,71.3
0.137932,391.6,28.9,2594.7,65.0,3009.1,200.8,399.7,2608.5,3004.9,199.4,71.3
0.139932,390.2,28.8,2595.1,72.7,3010.1,184.7,399.6,2611.9,3010.5,199.4,71.3
0.141932,389.0,29.7,2598.8,82.5,3013.5,178.1,399.2,2615,3016,199.3,71.3
0.143932,388.8,31.5,2605.7,92.0,3018.3,179.2,398.5,2617.9,3021.3,199.3,71.4
0.145932,389.7,34.3,2614.5,99.7,3023.6,186.3,397.6,2620.2,3026.4,199.2,71.4
0.147932,391.1,37.8,2622.0,103.5,3028.1,196.9,396.5,2622,3031.1,199,71.4
0.149932,392.3,41.3,2626.5,102.0,3031.1,207.4,395.3,2623,3035.4,198.9,71.4
0.151932,393.4,43.5,2626.9,95.7,3032.4,216.4,394,2623.1,3039.2,198.7,71.5
0.153932,394.3,43.8,2623.6,87.6,3032.4,225.9,392.8,2622.2,3042.3,198.5,71.5
0.155932,395.3,42.6,2618.6,80.6,3033.3,237.4,391.5,2620.1,3044.6,198.2,71.6
0.157932,396.4,41.0,2612.9,75.0,3036.6,250.8,390.4,2616.9,3046.1,198,71.7
0.159932,397.6,40.4,2607.5,71.4,3041.1,261.0,389.4,2612.4,3046.7,197.7,71.8
0.161932,398.5,41.1,2602.6,70.9,3045.1,266.6,388.6,2606.6,3046.4,197.4,71.9
0.163932,398.9,41.8,2598.1,74.5,3049.0,272.2,388,2599.4,3045,197.1,72.1
0.165932,398.7,40.8,2593.9,83.6,3054.8,283.2,387.7,2591,3042.7,196.8,72.3
0.167932,397.9,37.7,2589.1,99.2,3060.5,298.2,387.6,2581.3,3039.4,196.4,72.6
0.169932,396.7,33.4,2582.7,120.0,3060.2,308.9,387.9,2570.4,3035.1,196.1,72.9
0.171932,395.1,28.7,2572.9,146.7,3049.4,309.3,388.4,2558.5,3030,195.7,73.3
0.173932,393.3,24.4,2560.1,176.7,3030.0,292.2,389.3,2545.7,3024.1,195.4,73.9
0.175932,391.6,21.0,2545.3,208.1,3010.0,256.1,390.4,2532.2,3017.5,195,74.5
0.177932,390.2,18.5,2528.0,240.7,2997.2,217.1,391.7,2518.1,3010.4,194.6,75.3
0.179932,389.4,16.9,2508.3,262.4,2994.9,187.1,393.3,2503.7,3002.8,194.3,76
0.181932,388.9,15.5,2490.7,255.8,2999.5,168.3,395,2489.3,2995,193.9,76.8
0.183932,388.6,14.1,2477.0,228.4,3002.2,161.8,396.8,2474.9,2987.1,193.6,77.6
0.185932,388.6,12.5,2461.5,197.7,2994.2,169.0,398.7,2461,2979.3,193.3,78.3
0.187932,389.1,11.1,2443.2,174.5,2971.4,185.3,400.6,2447.8,2971.7,193,78.9
0.189932,390.4,10.4,2427.3,155.0,2945.4,194.4,402.4,2435.5,2964.5,192.7,79.3
0.191932,392.5,10.7,2418.7,136.5,2936.5,189.8,404.1,2424.2,2957.9,192.4,79.6
0.193932,395.4,11.9,2415.0,123.6,2942.2,177.1,405.6,2414.4,2952.1,192.1,79.8
0.195932,399.0,13.8,2411.5,121.1,2946.2,165.3,407,2406,2947.1,191.8,79.7
0.197932,403.3,16.5,2406.0,129.2,2943.7,160.6,408.1,2399.3,2943.1,191.6,79.4
0.199932,410.0,21.1,2396.6,147.7,2939.5,165.0,408.9,2394.5,2940.2,191.4,78.8
0.201932,422.3,28.5,2382.4,175.9,2939.5,181.2,409.3,2391.5,2938.4,191.2,78.1
0.203932,444.1,37.1,2361.0,215.9,2944.1,212.8,409.5,2390.5,2937.8,191,77.2
