time,f1,b1,f2,b2,f3,b3,f1p,f2p,f3p,f0,intensity
0.025306,990.4,313.5,1524.3,148.7,2179.4,392.2,1009.2,1475.2,2135,0,62.2
0.027306,994.3,265.8,1509.1,146.7,2145.0,417.4,1006.2,1473.4,2135.5,0,62.8
0.029306,985.3,232.1,1493.6,150.4,2108.8,413.1,1001.3,1470.5,2136.4,0,63.4
0.031306,979.0,219.4,1478.4,158.3,2100.4,390.0,994.5,1466.4,2137.6,0,63.9
0.033306,978.5,227.2,1460.9,166.0,2116.7,363.9,985.9,1461.2,2139,0,64.3
0.035306,982.3,254.4,1440.7,165.1,2140.7,343.8,975.7,1455.1,2140.6,0,64.6
0.037306,987.1,286.4,1424.6,153.9,2158.1,334.1,964,1448,2142.4,0,64.8
0.039306,988.5,300.0,1416.3,138.8,2163.0,325.9,950.9,1440.1,2144.3,0,64.9
0.041306,979.8,285.6,1410.8,126.8,2153.2,309.2,936.8,1431.5,2146.1,0,65
0.043306,957.9,264.4,1397.6,117.2,2136.1,285.1,921.8,1422.2,2147.9,0,65.2
0.045306,927.2,254.8,1376.5,107.9,2132.0,259.5,906,1412.4,2149.6,0,65.3
0.047306,893.5,250.5,1358.5,99.0,2148.2,229.6,889.7,1402.2,2151.2,0,65.4
0.049306,858.8,242.4,1350.1,95.4,2167.5,194.4,873.2,1391.7,2152.6,0,65.4
0.051306,830.0,228.7,1354.7,100.8,2172.6,169.2,856.6,1381,2153.8,0,65.4
0.053306,804.1,205.8,1370.9,110.8,2165.0,157.1,840.1,1370.2,2154.9,0,65.4
0.055306,783.4,180.8,1387.7,115.7,2152.4,160.3,823.8,1359.4,2155.8,174.2,65.5
0.057306,771.7,167.3,1391.7,112.8,2143.4,180.7,808.1,1348.6,2156.5,174,65.7
0.059306,767.3,166.7,1381.9,107.3,2144.2,223.9,793,1337.9,2157.3,173.7,66
0.061306,766.5,172.9,1364.7,103.0,2155.8,277.9,778.6,1327.4,2158,173.5,66.4
0.063306,764.9,180.9,1342.7,100.6,2171.5,327.3,765,1317.2,2158.8,173.3,66.9
0.065306,761.0,188.9,1317.7,101.3,2180.1,356.7,752.4,1307.2,2159.7,173,67.5
0.067306,756.0,196.8,1291.9,101.6,2177.4,368.6,740.7,1297.5,2160.9,172.8,68.1
0.069306,751.9,203.6,1269.8,96.6,2167.1,380.2,730.1,1288.1,2162.5,172.5,68.7
0.071306,749.8,204.5,1259.8,88.5,2155.0,401.3,720.4,1279.1,2164.5,172.2,69.2
0.073306,745.8,197.8,1258.0,80.1,2146.3,413.3,711.8,1270.4,2167,171.9,69.6
0.075306,734.6,185.3,1260.3,72.6,2149.6,384.8,704.2,1262,2170.1,171.7,69.8
0.077306,715.9,170.5,1263.8,67.9,2162.5,323.5,697.5,1253.9,2173.8,171.4,69.8
0.079306,694.1,154.4,1265.3,67.7,2176.2,258.1,691.6,1246.1,2178.2,171.1,69.7
0.081306,679.0,141.8,1258.8,72.1,2183.1,214.3,686.6,1238.7,2183.2,170.8,69.7
0.083306,670.3,133.3,1241.5,77.9,2186.6,185.4,682.3,1231.5,2188.9,170.5,69.7
0.085306,665.3,125.8,1220.4,78.4,2191.7,166.7,678.6,1224.6,2195.3,170.2,69.7
0.087306,662.3,114.8,1204.2,71.1,2199.9,155.9,675.5,1218,2202.3,169.8,69.9
0.089306,661.0,99.9,1193.7,59.9,2211.1,150.9,672.8,1211.6,2209.8,169.5,70
0.091306,661.1,86.1,1188.3,51.5,2223.2,150.2,670.6,1205.5,2217.7,169.2,70.2
0.093306,661.0,74.5,1185.1,47.1,2236.4,151.9,668.6,1199.6,2226,168.9,70.3
0.095306,660.1,65.8,1182.0,47.3,2248.5,156.2,666.9,1194,2234.6,168.5,70.5
0.097306,659.3,59.8,1178.7,51.2,2257.1,162.2,665.5,1188.6,2243.2,168.2,70.5
0.099306,659.0,55.6,1176.0,58.0,2261.6,169.4,664.2,1183.5,2251.8,167.8,70.6
0.101306,658.9,53.0,1175.2,66.0,2263.3,176.6,663,1178.6,2260.3,167.4,70.6
0.103306,658.7,51.1,1175.1,74.6,2266.2,185.0,661.9,1174,2268.5,167,70.6
0.105306,658.4,50.5,1173.4,84.0,2272.4,195.9,661,1169.7,2276.4,166.6,70.5
0.107306,658.4,51.7,1170.2,94.8,2280.5,209.2,660.1,1165.6,2283.7,166.2,70.3
0.109306,659.3,55.3,1167.7,108.0,2287.7,220.8,659.4,1161.9,2290.5,165.8,70.1
0.111306,661.2,61.6,1167.6,120.7,2291.9,221.6,658.9,1158.4,2296.7,165.3,69.8
0.113306,664.2,70.6,1167.4,130.4,2296.6,211.8,658.6,1155.2,2302.1,164.9,69.6
0.115306,667.3,79.7,1162.6,132.0,2303.5,197.6,658.5,1152.4,2306.8,164.4,69.3
0.117306,669.7,85.1,1153.5,124.7,2310.5,183.9,658.7,1149.8,2310.7,163.9,69
0.119306,671.4,87.2,1144.0,112.8,2316.2,172.2,659.2,1147.5,2313.9,163.5,68.8
0.121306,672.3,88.9,1139.8,105.4,2318.9,167.5,660,1145.6,2316.4,163,68.6
0.123306,672.2,92.0,1141.5,107.3,2318.4,171.7,661.3,1143.9,2318.2,162.5,68.3
0.125306,670.8,93.6,1148.3,120.6,2316.1,183.2,662.9,1142.4,2319.3,162,68.1
0.127306,668.6,87.8,1156.7,139.0,2313.1,192.0,664.9,1141.2,2319.8,161.6,68
0.129306,666.2,75.6,1161.2,147.5,2308.8,191.4,667.4,1140.3,2319.9,161.1,67.8
0.131306,665.5,66.4,1159.0,137.7,2305.6,186.4,670.2,1139.5,2319.4,160.7,67.7
0.133306,666.8,63.4,1152.3,122.3,2306.6,184.9,673.5,1139,2318.7,160.2,67.6
0.135306,670.1,67.2,1142.9,111.0,2312.2,187.5,677.1,1138.6,2317.6,159.8,67.3
0.137306,674.7,76.8,1132.7,102.3,2319.3,186.7,681,1138.4,2316.4,159.4,66.9
0.139306,680.6,91.0,1123.1,91.4,2325.8,174.4,685.2,1138.3,2315,0,66.4
0.141306,685.7,101.4,1116.6,79.0,2330.2,152.5,689.5,1138.3,2313.5,0,65.8
0.143306,688.3,102.7,1112.5,68.3,2331.0,125.0,694,1138.4,2312,0,65
0.145306,688.5,102.0,1110.9,65.6,2326.2,99.6,698.4,1138.5,2310.6,0,64.2
0.147306,688.4,109.6,1111.9,73.4,2319.4,83.1,702.8,1138.7,2309.2,0,63.2
0.149306,690.4,128.0,1115.5,91.0,2314.0,76.2,707.1,1138.9,2307.9,0,62.3
0.151306,698.6,149.7,1121.9,113.1,2310.7,81.6,711.1,1139.1,2306.8,0,61.4
0.153306,717.0,155.6,1133.4,135.1,2306.8,100.8,714.8,1139.3,2305.8,0,60.7
0.155306,730.8,128.4,1147.2,141.3,2301.4,121.9,718,1139.5,2304.9,0,60.3
0.157306,732.1,99.4,1154.8,132.7,2298.6,128.9,720.8,1139.7,2304.2,0,60.3
0.159306,729.4,82.0,1157.1,120.7,2298.3,124.7,723,1139.9,2303.6,0,60.4
0.161306,728.1,79.7,1157.3,113.3,2297.2,122.2,724.7,1140,2303.3,0,60.5
0.163306,730.5,96.8,1158.1,114.3,2293.8,134.3,725.7,1140,2303,0,60.6
0.165306,738.0,139.2,1159.7,124.9,2292.4,166.3,726,1140.1,2302.9,0,60.6
