time,f1,b1,f2,b2,f3,b3,f1p,f2p,f3p,f0,intensity
0.025336,611.8,178.6,2144.4,124.8,2839.2,185.0,585.8,2099.9,2849.4,0,60.2
0.027336,597.9,125.9,2141.0,135.3,2846.0,211.9,584.8,2102.9,2849,0,61
0.029336,586.9,78.6,2133.7,170.2,2859.0,246.7,583.1,2107.7,2848.3,0,61.9
0.031336,579.0,53.9,2117.7,233.3,2867.3,256.5,580.9,2114.5,2847.7,0,62.8
0.033336,571.8,41.0,2095.5,290.4,2862.7,234.1,578.2,2122.9,2847.2,0,63.7
0.035336,565.1,34.1,2092.0,279.1,2852.6,205.9,575.1,2132.8,2847.2,0,64.6
0.037336,558.5,30.8,2104.9,232.4,2842.2,173.5,571.6,2144,2847.8,0,65.5
0.039336,553.1,31.4,2121.8,198.7,2837.2,141.7,568,2156.3,2849.2,0,66.2
0.041336,550.0,35.5,2140.2,184.8,2837.2,121.3,564.2,2169.4,2851.6,0,66.9
0.043336,549.7,42.5,2164.7,178.4,2841.2,107.7,560.3,2182.9,2855.1,0,67.5
0.045336,551.1,50.1,2191.6,173.3,2847.8,100.3,556.4,2196.6,2859.8,0,67.9
0.047336,553.1,59.2,2221.1,166.7,2856.6,97.0,552.5,2210.1,2865.5,0,68.3
0.049336,554.7,74.3,2247.7,160.4,2867.6,96.5,548.7,2223.1,2872.3,0,68.6
0.051336,554.5,99.2,2264.5,158.4,2879.4,97.5,544.8,2235.2,2879.8,0,68.9
0.053336,549.7,129.6,2270.0,161.5,2891.1,100.0,540.8,2246.1,2887.7,193.7,69.3
0.055336,541.6,147.9,2268.2,165.3,2902.3,101.8,536.8,2255.5,2895.8,193.6,69.7
0.057336,534.3,157.2,2266.7,168.7,2915.3,101.0,532.6,2263.1,2903.6,193.4,70.1
0.059336,530.2,165.0,2269.0,174.4,2927.1,101.1,528.3,2268.9,2910.8,193.2,70.5
0.061336,528.6,170.1,2274.3,184.5,2934.0,106.8,523.7,2272.6,2917.1,192.9,70.8
0.063336,526.8,170.0,2279.0,200.3,2935.1,121.7,518.8,2274.3,2922,192.6,71
0.065336,522.8,167.2,2276.7,217.9,2930.4,144.9,513.6,2273.9,2925.4,192.3,71.2
0.067336,515.1,163.9,2266.9,234.0,2920.9,172.2,508.1,2271.6,2927.1,192,71.4
0.069336,504.4,160.0,2257.2,245.1,2911.9,186.1,502.3,2267.5,2927.1,191.7,71.5
0.071336,493.1,157.6,2254.5,253.6,2909.9,174.9,496.4,2262,2925.3,191.3,71.6
0.073336,481.7,158.3,2257.6,267.1,2912.5,149.8,490.3,2255.2,2922.1,190.9,71.7
0.075336,472.5,160.0,2258.5,294.6,2914.0,134.3,484.3,2247.6,2917.5,190.5,71.7
0.077336,465.3,159.6,2247.0,349.7,2912.4,135.3,478.3,2239.6,2912.1,190.1,71.8
0.079336,460.5,156.1,2215.4,411.2,2907.7,146.7,472.6,2231.4,2906.1,189.7,71.7
0.081336,458.1,152.2,2184.4,405.6,2903.3,153.1,467.3,2223.4,2900.1,189.2,71.7
0.083336,457.3,152.9,2180.4,330.3,2899.6,152.4,462.4,2215.9,2894.4,188.7,71.7
0.085336,457.1,158.6,2190.7,259.2,2893.4,156.5,458.2,2209.3,2889.6,188.2,71.8
0.087336,457.2,165.0,2202.4,209.2,2885.4,177.0,454.5,2203.6,2885.9,187.7,71.8
0.089336,458.7,167.2,2212.3,180.6,2879.4,217.5,451.5,2199,2883.8,187.2,71.8
0.091336,461.4,164.9,2220.3,166.6,2877.1,263.6,449.2,2195.5,2883.3,186.8,71.9
0.093336,463.2,159.9,2226.9,163.7,2878.0,298.1,447.5,2193.1,2884.6,186.3,71.9
0.095336,461.5,154.6,2229.8,174.6,2880.5,307.9,446.2,2191.5,2887.6,185.8,71.8
0.097336,455.4,149.7,2226.5,200.0,2886.3,297.7,445.3,2190.6,2892.2,185.3,71.9
0.099336,446.7,145.6,2213.4,228.9,2900.6,274.6,444.6,2190.2,2898.1,184.8,71.9
0.101336,438.9,142.9,2194.0,240.8,2920.4,242.6,443.9,2189.7,2904.9,184.4,72.1
0.103336,433.4,143.3,2175.3,235.4,2936.0,208.4,443.1,2189.1,2912.3,183.9,72.2
0.105336,431.1,146.9,2161.8,227.5,2940.7,179.9,441.8,2187.8,2919.7,183.5,72.4
0.107336,430.6,151.2,2151.6,219.0,2937.1,151.3,440.1,2185.6,2926.7,183.1,72.7
0.109336,431.1,153.3,2145.6,201.8,2929.8,124.5,437.6,2182.3,2932.9,182.7,72.8
0.111336,431.3,151.7,2144.6,173.1,2924.5,104.4,434.3,2177.6,2937.9,182.3,73
0.113336,429.9,145.6,2148.4,138.7,2923.4,91.5,430.2,2171.5,2941.3,182,73.1
0.115336,426.4,137.2,2153.7,112.0,2925.7,86.3,425.2,2163.9,2943,181.6,73.2
0.117336,421.2,129.2,2157.8,93.3,2928.9,85.4,419.5,2155,2942.9,181.3,73.2
0.119336,414.8,123.0,2159.0,82.5,2931.3,87.0,413,2144.9,2941,181,73.2
0.121336,407.5,116.7,2157.1,79.6,2933.3,90.6,406.1,2133.9,2937.5,180.7,73.2
0.123336,399.5,107.8,2151.6,85.4,2936.4,98.2,398.9,2122.3,2932.7,180.4,73.2
0.125336,393.0,99.5,2143.4,97.0,2939.1,108.1,391.6,2110.6,2926.9,180.2,73.1
0.127336,388.0,94.8,2131.9,108.3,2936.9,114.9,384.5,2099.2,2920.6,179.9,72.9
0.129336,384.0,94.1,2116.4,114.3,2927.7,114.8,377.9,2088.6,2914.2,179.7,72.6
0.131336,379.7,94.8,2097.3,118.2,2915.3,112.6,372.1,2079.1,2908.1,179.5,72.2
0.133336,373.6,95.8,2073.3,127.1,2902.8,113.6,367.3,2071.3,2902.9,179.3,71.6
0.135336,366.2,98.6,2048.8,143.1,2893.7,118.8,363.7,2065.5,2898.9,179.1,71.1
0.137336,356.8,106.3,2026.4,168.3,2888.5,128.7,361.5,2061.9,2896.4,178.9,70.5
0.139336,343.7,121.1,2013.3,208.1,2889.7,150.6,360.7,2060.7,2895.5,178.7,69.9
