time,f1,b1,f2,b2,f3,b3,f1p,f2p,f3p,f0,intensity
0.025819,385.5,466.6,1776.9,274.1,2684.5,250.6,417.5,1849,2684.3,235.1,72.7
0.027819,394.5,317.1,1819.8,250.2,2675.1,222.5,415.3,1857.4,2684.8,234.7,73.1
0.029819,396.3,237.6,1862.8,242.6,2668.4,210.5,411.7,1871,2685.6,234.3,73.5
0.031819,400.0,208.6,1902.8,246.9,2671.2,213.4,406.9,1889.6,2686.7,233.9,73.8
0.033819,403.7,199.7,1935.4,251.3,2680.0,227.7,401.1,1912.4,2688.2,233.4,74
0.035819,404.4,194.5,1962.5,254.3,2689.3,256.3,394.6,1938.9,2690.1,232.9,74.1
0.037819,401.4,189.1,1982.9,259.6,2691.4,299.3,387.6,1968.3,2692.4,232.4,74.2
0.039819,395.9,181.2,1999.1,275.2,2681.2,347.9,380.4,1999.8,2695.1,231.8,74.1
0.041819,389.8,174.6,2015.3,305.2,2676.1,349.7,373.4,2032.5,2698.3,231.2,74
0.043819,384.1,177.3,2046.0,346.3,2699.8,296.1,366.8,2065.5,2701.8,230.6,73.9
0.045819,377.9,194.6,2113.0,380.6,2735.4,223.0,360.8,2098.1,2705.8,229.9,73.8
0.047819,372.1,220.8,2186.6,350.5,2756.6,164.5,355.8,2129.4,2710,229.2,73.7
0.049819,366.1,244.5,2227.6,289.2,2763.3,125.8,351.8,2158.9,2714.4,228.5,73.6
0.051819,360.1,252.2,2240.7,247.5,2760.8,105.6,348.9,2186,2719,227.8,73.5
0.053819,354.1,242.7,2242.5,227.2,2754.8,97.9,347.2,2210.2,2723.5,227,73.3
0.055819,347.5,220.8,2240.5,217.5,2747.3,98.0,346.6,2231.3,2727.8,226.2,73.1
0.057819,341.3,195.0,2239.2,210.8,2739.7,103.0,347.2,2249.2,2731.9,225.4,72.9
0.059819,336.1,167.1,2242.2,203.0,2731.2,111.7,348.6,2263.9,2735.5,224.6,72.6
0.061819,333.6,141.2,2249.0,202.1,2723.5,127.8,350.8,2275.4,2738.5,223.8,72.5
0.063819,334.4,120.7,2255.0,221.0,2717.7,159.7,353.6,2284.1,2740.8,223,72.3
0.065819,338.0,104.9,2256.8,269.8,2707.9,214.9,356.7,2290.3,2742.3,222.2,72.2
0.067819,342.7,95.3,2253.0,334.4,2688.6,266.2,359.8,2294.5,2743,221.4,72.2
0.069819,348.3,88.7,2247.2,397.5,2670.1,291.4,362.7,2297.1,2742.9,220.6,72.1
0.071819,353.8,83.0,2249.1,437.0,2670.0,306.8,365.3,2298.7,2742,219.8,72.2
0.073819,358.7,77.5,2261.9,443.6,2688.9,329.0,367.2,2299.7,2740.5,219.1,72.2
0.075819,363.4,71.3,2279.8,422.4,2726.0,350.2,368.4,2300.7,2738.4,218.3,72.3
0.077819,367.9,65.9,2295.7,386.2,2766.2,328.8,368.8,2302.1,2735.9,217.6,72.4
0.079819,372.5,61.3,2313.6,344.2,2787.4,256.6,368.3,2304.3,2733.3,216.9,72.5
0.081819,376.8,58.6,2335.3,297.7,2788.9,184.4,366.8,2307.6,2730.8,216.2,72.6
0.083819,379.8,57.7,2353.8,258.3,2784.1,140.6,364.6,2312.2,2728.6,215.6,72.6
0.085819,381.3,58.3,2367.9,239.0,2777.0,120.8,361.6,2318.2,2727.1,215,72.6
0.087819,380.8,60.1,2378.5,246.1,2767.9,121.0,357.9,2325.6,2726.5,214.5,72.5
0.089819,378.0,63.2,2389.1,275.9,2754.3,135.1,353.8,2334.2,2727,213.9,72.3
0.091819,371.9,68.0,2399.3,322.4,2736.2,154.2,349.5,2344,2728.8,213.5,72
0.093819,362.4,74.0,2403.9,376.3,2719.9,162.1,345.1,2354.7,2732.2,213,71.6
0.095819,348.6,80.9,2395.2,421.6,2716.6,149.2,340.9,2365.9,2737.1,212.6,71.2
0.097819,333.2,87.6,2376.8,437.0,2726.4,127.4,337,2377.3,2743.6,212.2,70.8
0.099819,317.9,95.5,2357.6,434.8,2738.2,109.9,333.6,2388.5,2751.7,211.9,70.3
0.101819,307.3,105.3,2347.1,425.8,2747.3,103.7,330.8,2399.1,2761.3,211.7,69.9
0.103819,303.8,114.5,2347.3,413.2,2755.8,107.4,328.6,2408.7,2772.1,211.4,69.5
0.105819,306.4,120.0,2354.1,392.1,2766.8,118.6,327.3,2416.9,2784,211.2,69.1
0.107819,312.5,119.5,2362.6,366.0,2779.2,135.9,326.6,2423.5,2796.6,211.1,68.7
0.109819,319.7,114.0,2376.2,343.8,2791.6,167.6,326.7,2428.1,2809.5,211,68.4
0.111819,325.6,105.7,2402.1,338.6,2800.6,220.0,327.3,2430.6,2822.5,210.9,68
0.113819,329.0,97.1,2438.1,346.2,2807.3,273.2,328.5,2430.8,2835.1,210.9,67.7
0.115819,330.0,89.1,2466.9,342.9,2822.0,300.3,330,2428.7,2846.8,210.9,67.4
0.117819,329.9,82.6,2465.8,313.7,2847.4,297.5,331.7,2424.3,2857.5,211,67.1
0.119819,330.5,77.0,2443.6,264.6,2878.2,288.3,333.4,2417.7,2866.7,211.1,66.7
0.121819,333.4,73.2,2419.4,218.5,2904.9,290.0,335.1,2409,2874.3,211.2,66.3
0.123819,337.8,72.2,2403.0,193.8,2921.0,300.4,336.4,2398.5,2879.9,211.4,65.9
0.125819,343.0,74.6,2392.4,190.2,2925.6,307.5,337.5,2386.5,2883.6,211.6,65.5
0.127819,347.5,79.9,2383.6,202.0,2920.2,304.5,338,2373.2,2885.2,211.8,65
0.129819,350.8,86.9,2369.0,218.8,2906.3,294.5,338,2359,2884.8,212,64.5
0.131819,351.9,93.7,2348.3,226.6,2885.2,283.1,337.6,2344.3,2882.7,212.2,63.9
0.133819,351.0,99.3,2332.3,227.9,2862.5,272.7,336.6,2329.4,2878.9,212.5,63.4
0.135819,348.1,105.3,2323.1,235.3,2844.9,254.1,335.1,2314.6,2873.8,212.8,62.9
0.137819,343.6,111.8,2316.9,249.8,2841.7,231.3,333.3,2300.3,2867.8,213.1,62.3
0.139819,336.2,116.5,2308.6,270.2,2851.7,216.5,331.3,2286.9,2861.2,213.4,61.7
0.141819,327.3,116.9,2295.8,294.9,2865.0,219.1,329.1,2274.6,2854.4,213.7,61.1
0.143819,320.5,119.2,2279.6,326.7,2870.3,244.6,326.9,2263.7,2847.9,214,60.4
0.145819,316.7,133.5,2263.6,382.4,2864.4,297.4,325,2254.5,2841.9,214.2,59.7
0.147819,315.0,161.9,2250.4,473.9,2848.2,346.0,323.3,2247.2,2836.9,214.5,59
0.149819,313.4,198.2,2226.1,608.2,2825.2,335.9,322,2241.8,2833.1,214.8,58.3
0.151819,312.5,225.8,2194.3,749.9,2810.0,275.3,321.2,2238.5,2830.7,215.1,57.7
0.153819,314.2,242.2,2190.0,897.1,2799.8,229.5,320.9,2237.4,2829.9,215.3,57
