time,f1,b1,f2,b2,f3,b3,f1p,f2p,f3p,f0,intensity
0.025692,391.0,81.2,1591.4,75.3,2752.7,413.8,396.5,1579.2,2752.2,202.6,74.7
0.027692,394.1,70.2,1606.0,72.2,2759.7,439.7,397.5,1587,2742.7,203.2,75.3
0.029692,397.0,64.6,1621.5,79.1,2743.2,433.2,399.1,1599.8,2727.5,203.7,76
0.031692,400.2,58.8,1638.8,95.7,2713.4,398.9,401.3,1617.3,2707.4,204.2,76.8
0.033692,403.9,49.9,1657.3,114.2,2677.0,364.3,403.9,1639,2683.5,204.8,77.8
0.035692,408.7,39.3,1675.9,121.7,2636.1,338.2,407,1664.4,2657.2,205.3,78.8
0.037692,413.8,30.4,1690.6,117.4,2594.9,329.2,410.4,1692.9,2629.8,205.9,79.8
0.039692,418.5,24.4,1704.2,117.2,2563.2,347.0,414,1723.7,2602.9,206.4,80.7
0.041692,422.5,21.4,1724.8,133.3,2555.3,407.4,417.8,1756.1,2578,206.9,81.6
0.043692,425.7,20.6,1752.5,166.4,2574.6,489.1,421.6,1789.4,2556.3,207.4,82.4
0.045692,428.3,20.6,1780.1,219.5,2599.1,527.4,425.4,1822.8,2539.1,207.9,82.9
0.047692,430.8,21.3,1797.5,310.3,2599.0,489.1,429.1,1855.7,2527.3,208.4,83.3
0.049692,433.3,23.2,1807.5,468.2,2567.6,406.2,432.6,1887.4,2521.5,208.9,83.6
0.051692,435.7,25.9,1845.0,635.6,2522.6,345.5,436.1,1917.2,2522,209.3,83.6
0.053692,437.7,27.9,1943.3,671.4,2481.6,348.4,439.3,1944.7,2528.8,209.7,83.6
0.055692,439.3,30.0,2048.0,546.8,2465.6,423.1,442.5,1969.4,2541.7,210.1,83.4
0.057692,441.2,34.5,2101.6,387.1,2494.7,544.7,445.5,1991.1,2560.1,210.5,83.2
0.059692,443.8,41.5,2114.1,302.3,2548.1,665.7,448.4,2009.5,2583.2,210.8,83
0.061692,447.5,51.5,2111.4,267.0,2619.6,792.3,451.3,2024.4,2610.1,211.1,82.7
0.063692,452.0,63.4,2094.8,261.9,2691.1,863.0,454.3,2036,2639.6,211.4,82.4
0.065692,456.9,75.7,2063.8,272.4,2724.3,853.3,457.3,2044.3,2670.6,211.6,82.1
0.067692,461.1,87.2,2027.7,277.4,2735.7,797.8,460.5,2049.4,2702.1,211.9,81.8
0.069692,465.0,99.1,1994.4,270.2,2748.3,729.3,463.8,2051.5,2733.1,212,81.6
0.071692,468.4,112.4,1974.9,252.7,2760.5,678.9,467.3,2051.1,2762.5,212.2,81.4
0.073692,472.3,129.4,1976.2,228.0,2777.1,656.1,471,2048.3,2789.7,212.3,81.2
0.075692,476.8,148.1,1989.3,202.2,2807.2,616.4,474.9,2043.5,2814.2,212.4,81
0.077692,481.8,166.7,2001.7,180.9,2838.6,527.3,478.9,2037.1,2835.5,212.5,80.9
0.079692,486.0,182.6,2010.6,169.3,2855.4,441.7,483,2029.4,2853.6,212.5,80.8
0.081692,488.7,194.7,2018.5,163.4,2859.7,402.2,487.1,2020.8,2868.3,212.5,80.7
0.083692,490.5,200.7,2023.9,156.8,2857.7,413.8,491.1,2011.4,2880,212.5,80.6
0.085692,493.4,203.2,2024.2,148.8,2858.2,444.1,494.9,2001.7,2888.8,212.5,80.6
0.087692,498.2,206.8,2019.1,142.3,2869.4,448.6,498.4,1991.6,2895.3,212.4,80.6
0.089692,503.3,211.1,2009.7,139.6,2887.9,424.8,501.3,1981.5,2899.7,212.3,80.6
0.091692,506.2,212.5,1999.3,140.8,2901.9,404.8,503.7,1971.4,2902.5,212.2,80.6
0.093692,506.9,212.5,1989.0,144.2,2911.6,401.7,505.4,1961.3,2904.1,212,80.6
0.095692,506.7,216.1,1976.6,147.5,2922.9,407.6,506.3,1951.4,2904.9,211.8,80.5
0.097692,506.0,225.1,1957.7,148.0,2940.3,401.1,506.3,1941.5,2905.1,211.6,80.5
0.099692,504.1,234.8,1935.4,144.4,2950.7,358.9,505.4,1931.7,2904.9,211.4,80.4
0.101692,500.2,239.9,1914.9,138.6,2939.8,288.6,503.5,1922,2904.5,211.2,80.4
0.103692,495.4,239.4,1900.0,132.1,2915.1,213.3,500.6,1912.2,2903.9,210.9,80.4
0.105692,490.6,234.6,1888.5,125.7,2892.6,150.7,496.8,1902.5,2903.1,210.6,80.4
0.107692,486.1,224.5,1877.8,122.0,2878.4,116.8,492.1,1892.6,2902,210.3,80.5
0.109692,482.2,214.2,1866.6,118.9,2867.5,102.1,486.6,1882.8,2900.5,210,80.6
0.111692,479.8,212.5,1857.3,114.5,2859.6,96.8,480.5,1872.9,2898.6,209.6,80.6
0.113692,476.8,216.1,1849.5,111.5,2860.0,100.5,473.8,1863.1,2896.2,209.3,80.7
0.115692,472.3,216.7,1843.1,110.6,2873.3,108.6,466.9,1853.4,2893.3,208.9,80.9
0.117692,466.3,206.6,1837.8,109.0,2891.4,111.9,459.7,1843.9,2889.9,208.5,81
0.119692,459.4,184.7,1833.2,105.0,2902.2,113.6,452.6,1834.9,2886.1,208.1,81.1
0.121692,452.2,157.6,1829.2,99.1,2906.9,121.7,445.8,1826.4,2882.1,207.8,81.3
0.123692,445.7,135.0,1825.6,94.4,2909.8,136.8,439.4,1818.5,2878,207.4,81.3
0.125692,439.4,117.0,1821.5,92.7,2910.6,155.4,433.6,1811.6,2874,207,81.3
0.127692,432.9,102.2,1816.3,94.1,2902.8,172.3,428.6,1805.7,2870.3,206.6,81.2
0.129692,426.0,90.0,1809.9,95.8,2882.1,180.4,424.6,1800.9,2867.2,206.2,80.9
0.131692,418.6,80.7,1803.0,91.5,2854.1,171.6,421.6,1797.4,2864.9,205.9,80.5
0.133692,411.4,76.4,1796.3,80.1,2833.4,154.5,419.8,1795.2,2863.4,205.5,80
0.135692,403.8,76.7,1787.6,68.3,2820.4,147.0,419.2,1794.5,2862.9,205.2,79.2
