time,f1,b1,f2,b2,f3,b3,f1p,f2p,f3p,f0,intensity
0.025889,652.2,289.0,1124.2,332.0,2573.2,105.5,602.9,1166.5,2568.4,234.8,70.1
0.027889,629.8,258.0,1158.3,280.8,2569.4,98.9,603.9,1167.9,2568.6,234.9,70.5
0.029889,615.0,245.0,1178.0,232.2,2565.0,93.1,605.6,1170.1,2568.8,234.9,70.9
0.031889,607.8,250.2,1187.4,193.1,2562.9,89.2,607.8,1173.4,2569.1,234.9,71.3
0.033889,604.5,262.3,1193.4,155.8,2563.4,86.1,610.6,1177.6,2569.4,234.9,71.7
0.035889,602.5,269.4,1199.2,120.4,2565.9,83.6,613.7,1182.9,2569.8,234.8,72.1
0.037889,601.1,269.1,1205.1,89.7,2570.3,82.4,617,1189.3,2570.1,234.8,72.5
0.039889,601.0,264.4,1209.8,69.2,2575.6,82.9,620.4,1196.8,2570.3,234.7,73
0.041889,602.3,258.1,1213.2,57.4,2579.7,84.6,623.7,1205.5,2570.3,234.6,73.4
0.043889,604.3,252.8,1216.4,51.4,2580.4,88.0,626.9,1215.3,2570.2,234.4,73.8
0.045889,607.4,252.9,1221.1,49.3,2577.5,95.4,629.8,1226.4,2570,234.2,74
0.047889,612.9,266.1,1228.8,50.6,2572.0,109.9,632.2,1238.6,2569.4,234,74.2
0.049889,621.8,296.9,1238.8,55.9,2566.0,130.9,634.2,1251.9,2568.6,233.7,74.3
0.051889,634.7,341.3,1250.7,66.3,2560.8,154.3,635.6,1266.2,2567.6,233.3,74.2
0.053889,646.2,362.4,1264.1,79.4,2555.9,172.1,636.4,1281.5,2566.2,233,74.1
0.055889,649.1,331.3,1281.5,90.9,2551.1,183.1,636.5,1297.6,2564.6,232.5,73.9
0.057889,646.5,279.9,1307.2,98.4,2552.4,183.5,636.1,1314.4,2562.8,232,73.7
0.059889,642.2,238.2,1339.3,97.2,2558.4,174.6,635.1,1331.7,2560.6,231.5,73.6
0.061889,639.4,215.4,1368.5,86.7,2562.4,160.9,633.6,1349.3,2558.3,230.9,73.5
0.063889,639.6,209.8,1388.6,73.7,2563.0,147.1,631.6,1367.1,2555.9,230.3,73.6
0.065889,641.4,213.6,1399.7,63.3,2562.5,136.1,629.4,1384.9,2553.3,229.6,73.6
0.067889,642.6,219.8,1406.2,55.8,2561.0,128.1,626.8,1402.4,2550.7,228.8,73.5
0.069889,641.0,226.0,1411.3,52.3,2557.3,124.7,624.1,1419.6,2548.1,228,73.4
0.071889,636.6,237.9,1418.6,54.2,2551.8,125.7,621.4,1436.3,2545.5,227.1,73.1
0.073889,629.6,258.0,1432.7,63.4,2546.0,130.6,618.7,1452.4,2543.2,226.2,72.8
0.075889,619.7,265.7,1457.4,77.7,2540.1,134.8,616,1467.7,2541,225.2,72.4
0.077889,607.8,236.9,1488.4,86.0,2533.3,132.2,613.5,1482.3,2539.1,224.2,72.1
0.079889,597.9,194.9,1512.9,82.9,2527.2,125.4,611.2,1496.1,2537.5,223.1,71.9
0.081889,590.9,165.1,1528.2,76.0,2525.2,121.9,609.1,1509.1,2536.3,222,71.9
0.083889,587.1,156.2,1537.6,73.9,2529.1,125.1,607.1,1521.4,2535.5,220.8,71.9
0.085889,586.9,161.8,1544.8,77.9,2533.3,129.3,605.3,1533,2535.2,219.5,72.1
0.087889,590.7,171.4,1551.0,86.0,2533.4,129.2,603.5,1544.1,2535.3,218.2,72.3
0.089889,597.2,175.8,1556.5,96.7,2532.8,126.7,601.8,1554.7,2536,216.9,72.6
0.091889,603.1,172.4,1561.7,111.3,2534.9,124.3,600.1,1565.1,2537.1,215.5,72.9
0.093889,605.8,164.2,1567.4,132.7,2539.1,123.3,598.2,1575.3,2538.8,214,73.2
0.095889,604.5,155.3,1574.1,159.9,2543.8,124.6,596.2,1585.5,2541.1,212.5,73.5
0.097889,599.8,145.5,1582.0,185.8,2549.4,126.6,594,1595.9,2543.8,211,73.8
0.099889,592.7,131.9,1588.8,194.7,2554.1,127.2,591.4,1606.5,2547,209.4,74.2
0.101889,584.6,113.2,1593.5,192.4,2556.2,130.6,588.5,1617.5,2550.8,207.7,74.6
0.103889,578.0,95.1,1600.2,199.5,2558.5,143.9,585.4,1628.9,2555,206,74.9
0.105889,574.4,82.5,1616.0,226.9,2565.4,177.0,581.8,1640.8,2559.6,204.3,75.3
0.107889,573.5,74.8,1648.3,259.5,2578.1,242.9,578.1,1653.2,2564.7,202.6,75.5
0.109889,574.0,70.1,1690.5,254.0,2591.4,329.5,574.1,1666.1,2570.1,200.7,75.7
0.111889,575.1,67.7,1720.9,207.6,2589.2,391.2,570,1679.3,2576,198.9,75.7
0.113889,576.6,68.9,1730.8,164.4,2566.6,392.7,565.9,1692.9,2582.1,197,75.6
0.115889,578.0,74.5,1732.5,139.5,2551.7,369.6,561.8,1706.6,2588.6,195.2,75.5
0.117889,578.1,85.2,1734.4,128.3,2560.9,345.1,558,1720.4,2595.4,193.2,75.2
0.119889,574.7,99.5,1738.8,123.7,2586.0,308.7,554.6,1734,2602.4,191.3,74.8
0.121889,566.3,113.3,1744.6,122.4,2608.1,263.4,551.7,1747.4,2609.7,189.4,74.4
0.123889,553.9,121.7,1750.2,126.0,2621.7,229.0,549.4,1760.3,2617.1,187.5,73.9
0.125889,540.1,124.6,1756.2,141.9,2633.6,212.1,547.8,1772.5,2624.7,185.5,73.4
0.127889,530.5,126.9,1765.3,181.6,2647.7,219.5,547.1,1784,2632.3,183.6,72.9
0.129889,526.3,137.1,1784.6,246.2,2662.6,250.5,547.2,1794.6,2640.1,181.7,72.5
0.131889,526.4,156.3,1809.1,296.3,2670.3,284.6,548.3,1804.2,2647.8,179.8,72.1
0.133889,531.3,175.7,1818.1,308.8,2664.9,299.8,550.2,1812.7,2655.5,178,71.9
0.135889,541.2,181.9,1813.9,304.6,2654.0,300.7,553,1820.1,2663,176.2,71.7
0.137889,552.7,173.3,1810.3,296.0,2649.4,300.6,556.6,1826.4,2670.4,174.5,71.5
0.139889,562.1,160.9,1814.3,291.4,2655.9,309.3,560.9,1831.5,2677.6,172.8,71.4
0.141889,571.0,148.8,1825.7,294.6,2673.1,329.2,565.7,1835.7,2684.4,171.2,71.3
0.143889,580.6,136.7,1839.7,308.5,2696.6,353.6,570.8,1838.8,2690.9,169.6,71.1
0.145889,589.4,123.5,1850.7,336.5,2715.1,377.8,576.1,1841.2,2696.9,168.1,70.9
0.147889,593.7,109.8,1857.4,377.2,2718.7,406.0,581.5,1842.8,2702.4,166.7,70.8
0.149889,593.5,96.2,1861.8,413.5,2710.7,436.1,586.6,1843.8,2707.3,165.4,70.5
0.151889,592.8,85.2,1860.7,417.1,2705.3,441.3,591.3,1844.4,2711.5,164.1,70.3
0.153889,594.3,80.4,1850.0,387.9,2711.0,392.2,595.4,1844.7,2715.1,162.9,70
0.155889,597.4,80.9,1834.7,356.0,2718.8,315.7,598.8,1844.8,2717.9,161.8,69.6
0.157889,599.8,83.1,1825.6,344.7,2723.8,267.2,601.3,1844.8,2720,160.8,69.1
0.159889,600.4,85.5,1832.5,349.6,2723.7,247.6,602.9,1844.7,2721.2,159.9,68.6
0.161889,599.5,90.1,1861.8,356.7,2706.9,234.3,603.4,1844.7,2721.6,159,68
