time,f1,b1,f2,b2,f3,b3,f1p,f2p,f3p,f0,intensity
0.025039,262.7,284.8,1981.6,163.5,2716.3,313.3,264,1959.6,2648.1,247.5,68.1
0.027039,265.7,238.5,1981.6,165.7,2688.8,289.0,265.3,1963.2,2643.8,247.4,69.6
0.029039,266.7,205.1,1981.1,150.8,2663.3,275.9,267.4,1969.2,2636.9,247.2,70.8
0.031039,268.5,185.1,1982.8,129.7,2633.4,276.2,270.4,1977.3,2627.6,247.1,71.9
0.033039,272.2,173.5,1985.8,116.5,2597.3,289.9,274,1987.3,2616.5,246.9,72.8
0.035039,277.2,166.6,1990.0,114.8,2568.7,311.6,278.1,1998.9,2604.2,246.8,73.5
0.037039,283.1,162.7,1996.3,123.9,2557.9,338.7,282.7,2011.8,2591.2,246.6,74.1
0.039039,289.3,160.1,2003.1,146.3,2561.4,354.3,287.6,2025.8,2578.1,246.4,74.5
0.041039,295.6,158.6,2009.2,189.6,2562.6,348.1,292.7,2040.3,2565.8,246.1,74.9
0.043039,301.2,161.4,2016.8,259.7,2552.0,334.7,297.8,2055.1,2554.7,245.9,75.2
0.045039,305.8,169.3,2033.7,340.3,2529.0,335.4,302.9,2069.9,2545.5,245.7,75.5
0.047039,309.5,177.6,2067.8,392.9,2499.4,360.1,307.8,2084.4,2538.8,245.4,75.6
0.049039,312.9,181.3,2110.9,396.0,2477.5,399.9,312.4,2098.3,2534.8,245.1,75.8
0.051039,316.4,179.5,2147.0,355.4,2480.4,438.8,316.8,2111.3,2533.9,244.9,75.9
0.053039,319.6,174.8,2164.5,307.0,2508.4,451.4,320.8,2123.5,2536.4,244.6,75.9
0.055039,322.4,170.7,2172.7,275.8,2540.6,446.2,324.5,2134.6,2542.2,244.2,75.9
0.057039,325.2,169.2,2177.8,262.2,2567.2,446.3,327.9,2144.6,2551.2,243.9,75.9
0.059039,328.1,171.3,2180.8,261.0,2590.6,462.2,331.1,2153.6,2563.2,243.6,75.8
0.061039,331.5,177.0,2180.5,266.1,2615.0,490.0,334,2161.6,2577.9,243.2,75.8
0.063039,335.2,184.9,2176.6,274.9,2641.1,518.4,336.9,2168.6,2595,242.8,75.7
0.065039,338.8,192.3,2169.9,287.5,2664.6,539.3,339.7,2174.9,2613.8,242.4,75.6
0.067039,342.5,197.9,2161.6,303.9,2684.2,557.5,342.5,2180.6,2633.9,242,75.5
0.069039,346.2,200.0,2156.4,316.0,2697.6,584.0,345.4,2185.8,2654.7,241.6,75.4
0.071039,350.2,199.1,2159.6,315.3,2706.2,633.6,348.6,2190.6,2675.6,241.1,75.3
0.073039,354.3,196.9,2169.8,302.9,2714.0,712.7,352,2195.1,2696.1,240.7,75.2
0.075039,358.2,195.8,2180.0,288.5,2722.6,816.0,355.8,2199.6,2715.8,240.2,75.1
0.077039,361.9,197.3,2185.6,282.1,2728.6,923.6,359.9,2203.9,2734.2,239.7,75
0.079039,365.9,200.1,2187.7,288.2,2727.1,996.8,364.3,2208.1,2750.9,239.1,74.9
0.081039,370.4,201.6,2191.2,304.5,2717.9,996.4,369.1,2212.1,2765.6,238.6,74.8
0.083039,375.2,199.7,2200.0,325.2,2709.2,910.3,374.2,2215.9,2778.2,238,74.7
0.085039,379.6,193.9,2211.9,336.3,2716.0,782.3,379.6,2219.2,2788.6,237.4,74.7
0.087039,384.3,185.8,2226.2,330.8,2738.3,681.5,385.1,2222,2796.7,236.7,74.6
0.089039,389.9,177.2,2243.9,318.9,2766.1,637.1,390.8,2224,2802.6,236.1,74.6
0.091039,396.1,170.3,2262.4,310.8,2794.7,645.9,396.5,2224.9,2806.3,235.4,74.6
0.093039,401.8,167.6,2274.8,307.6,2822.3,688.0,402.2,2224.5,2808,234.7,74.6
0.095039,406.7,169.3,2273.4,305.6,2843.5,719.8,407.7,2222.4,2807.8,233.9,74.6
0.097039,410.7,171.8,2259.3,305.0,2850.0,698.5,413,2218.5,2806,233.2,74.7
0.099039,414.8,171.2,2238.3,309.7,2841.1,617.8,418,2212.4,2802.6,232.4,74.7
0.101039,419.5,164.7,2216.0,320.5,2825.2,513.4,422.7,2203.9,2798,231.6,74.8
0.103039,424.6,152.6,2193.7,334.6,2809.8,423.1,427,2192.9,2792,230.7,74.9
0.105039,429.8,137.8,2168.9,349.5,2796.0,357.5,430.9,2179.1,2785,229.9,75
0.107039,434.8,123.7,2138.2,359.0,2783.3,310.0,434.4,2162.7,2777,229,75.2
0.109039,439.5,111.7,2104.9,354.3,2771.7,272.6,437.5,2143.4,2768.1,228.2,75.6
0.111039,443.7,101.2,2078.0,332.0,2760.9,242.5,440.3,2121.5,2758.2,227.3,76
0.113039,446.8,91.6,2059.7,296.3,2750.9,219.6,442.7,2096.9,2747.4,226.4,76.5
0.115039,448.9,81.1,2040.2,248.5,2738.9,198.9,444.8,2070,2735.6,225.5,77.1
0.117039,450.0,70.7,2015.0,200.3,2724.6,182.3,446.7,2040.9,2723,224.6,77.8
0.119039,450.6,61.8,1985.0,161.5,2708.9,173.9,448.5,2010,2709.5,223.8,78.4
0.121039,451.0,54.9,1953.3,134.5,2693.7,177.0,450.1,1977.7,2695.1,222.9,79.1
0.123039,451.3,50.3,1923.2,116.3,2679.7,194.2,451.6,1944.3,2679.9,222.1,79.7
0.125039,451.5,48.0,1898.5,104.1,2666.7,233.2,453.2,1910.4,2664.1,221.2,80.3
0.127039,452.1,48.5,1881.6,97.1,2652.1,309.7,454.7,1876.4,2647.8,220.4,80.7
0.129039,453.1,51.5,1871.8,95.1,2632.6,431.9,456.2,1842.7,2631.1,219.6,81
0.131039,454.6,55.9,1863.9,96.9,2602.7,589.8,457.7,1810,2614.3,218.9,81.2
0.133039,456.6,58.9,1853.0,102.7,2564.6,692.8,459.3,1778.6,2597.7,218.1,81.2
0.135039,458.8,58.4,1833.6,114.7,2527.5,673.1,460.8,1749.1,2581.6,217.4,81.2
0.137039,461.1,55.7,1799.7,130.7,2504.4,565.8,462.3,1721.9,2566.4,216.8,81.1
0.139039,463.3,52.7,1749.4,138.8,2506.6,443.2,463.7,1697.5,2552.3,216.1,80.9
0.141039,464.7,50.1,1694.0,130.3,2527.7,351.0,465,1676.1,2539.7,215.5,80.6
0.143039,465.5,48.1,1649.9,114.8,2546.8,300.3,466.1,1658.1,2528.9,215,80.4
0.145039,466.3,46.6,1615.3,102.0,2554.0,279.2,467,1643.9,2520.1,214.4,80.1
0.147039,467.9,46.1,1587.5,97.4,2551.2,282.6,467.7,1633.5,2513.7,214,79.8
0.149039,470.6,46.7,1562.7,102.0,2546.9,307.2,468.1,1627.2,2509.8,213.5,79.5
0.151039,474.2,48.6,1537.3,113.0,2545.6,350.3,468.3,1625.1,2508.5,213.1,79.2
