time,f1,b1,f2,b2,f3,b3,f1p,f2p,f3p,f0,intensity
0.025240,462.6,195.8,1210.9,256.4,2512.4,1392.8,515.1,1166.3,2537.3,159.1,69.3
0.027240,484.8,179.2,1216.3,225.0,2498.5,1150.5,517,1171.9,2538.5,159.1,69.4
0.029240,505.7,159.4,1223.5,186.8,2495.7,948.0,520.2,1181.2,2540.5,159,69.5
0.031240,523.4,141.3,1232.8,154.0,2502.3,808.9,524.5,1194,2543.3,158.9,69.7
0.033240,538.0,126.5,1245.4,127.0,2519.8,701.2,529.8,1210.3,2546.8,158.9,69.9
0.035240,551.1,115.8,1259.6,105.1,2542.7,608.2,536.2,1229.9,2551.1,158.8,70.1
0.037240,562.5,108.9,1272.2,89.6,2563.0,534.6,543.3,1252.6,2556.1,158.7,70.2
0.039240,571.6,105.6,1283.2,81.1,2578.9,479.7,551.1,1278.1,2561.9,158.6,70.4
0.041240,579.2,107.0,1295.8,80.3,2594.0,439.3,559.3,1306.3,2568.3,158.5,70.4
0.043240,587.1,113.0,1313.2,86.9,2610.9,412.1,567.9,1336.8,2575.4,158.4,70.5
0.045240,595.8,120.5,1337.1,98.5,2626.4,391.8,576.6,1369.4,2583.1,158.4,70.5
0.047240,604.7,127.0,1369.6,112.6,2636.8,373.8,585.3,1403.7,2591.4,158.3,70.5
0.049240,612.6,128.9,1410.0,123.1,2640.9,359.1,593.6,1439.5,2600.3,158.2,70.5
0.051240,618.4,124.3,1451.5,125.7,2641.7,340.8,601.5,1476.4,2609.6,158.1,70.5
0.053240,621.0,116.2,1488.8,125.1,2643.8,309.8,608.8,1514,2619.4,158,70.4
0.055240,620.8,107.7,1519.7,128.1,2648.8,271.1,615.3,1552.2,2629.6,158,70.3
0.057240,619.3,101.2,1543.4,140.6,2654.9,240.4,620.9,1590.4,2640.1,157.9,70.2
0.059240,616.7,98.9,1561.4,167.6,2660.2,224.5,625.3,1628.4,2650.9,157.9,70.1
0.061240,612.9,100.8,1579.1,213.8,2664.1,219.8,628.6,1666,2661.9,157.8,70.1
0.063240,609.1,102.9,1604.2,280.5,2667.7,220.2,630.5,1702.7,2673,157.8,70
0.065240,606.8,101.1,1647.0,367.2,2672.9,225.8,631.1,1738.4,2684.3,157.7,70
0.067240,605.0,94.1,1718.7,469.4,2680.7,240.3,630.3,1772.8,2695.6,157.7,70
0.069240,602.9,82.7,1811.8,548.5,2690.0,259.2,628,1805.7,2706.8,157.7,70
0.071240,601.3,71.5,1889.3,569.4,2696.8,269.7,624.3,1836.8,2718,157.7,70.1
0.073240,600.3,64.0,1935.5,554.8,2700.3,268.2,619.2,1866.1,2729,157.8,70.1
0.075240,599.4,59.4,1961.6,522.6,2705.9,257.7,612.7,1893.4,2739.7,157.8,70.1
0.077240,598.0,55.7,1975.6,472.7,2716.7,241.2,605,1918.6,2750.3,157.8,70.1
0.079240,595.5,53.0,1983.7,414.3,2732.2,225.3,596.2,1941.7,2760.4,157.9,70.1
0.081240,591.4,53.0,1993.3,360.4,2750.4,214.5,586.2,1962.5,2770.3,158,70
0.083240,585.4,56.1,2008.2,316.9,2767.6,207.6,575.4,1981.2,2779.7,158,69.9
0.085240,577.3,62.0,2028.3,282.2,2782.8,202.4,563.7,1997.8,2788.7,158.1,69.7
0.087240,567.0,70.2,2050.2,252.4,2798.5,194.6,551.4,2012.2,2797.2,158.2,69.6
0.089240,555.4,78.3,2067.3,227.9,2814.1,183.4,538.7,2024.8,2805.3,158.3,69.5
0.091240,543.8,84.4,2077.6,214.4,2829.0,175.1,525.6,2035.5,2812.9,158.4,69.5
0.093240,531.9,89.7,2085.8,211.2,2843.2,163.5,512.4,2044.5,2820,158.4,69.4
0.095240,518.4,94.2,2092.9,213.8,2853.0,147.0,499.1,2052.1,2826.7,158.5,69.5
0.097240,502.2,96.4,2098.6,218.6,2857.8,131.9,486,2058.3,2832.8,158.6,69.6
0.099240,484.1,96.2,2106.5,224.8,2859.8,123.5,473.2,2063.5,2838.6,158.7,69.7
0.101240,466.8,94.5,2120.0,231.5,2860.6,122.7,460.8,2067.8,2843.9,158.8,69.7
0.103240,451.9,93.9,2137.2,238.4,2860.7,128.0,448.9,2071.4,2848.8,158.9,69.8
0.105240,437.7,98.2,2151.6,249.4,2861.0,137.8,437.6,2074.7,2853.5,159,69.9
0.107240,423.6,111.8,2148.6,270.4,2860.8,151.0,427,2077.7,2857.8,159,70
0.109240,411.5,145.1,2098.6,302.5,2855.9,164.3,417.2,2080.8,2861.9,159.1,70.1
0.111240,400.2,199.5,1991.5,305.2,2847.3,169.4,408.2,2084.2,2865.7,159.1,70.2
0.113240,388.5,243.8,1891.9,252.5,2845.4,166.1,399.9,2088,2869.5,159.2,70.4
0.115240,379.8,262.9,1846.1,207.7,2852.9,156.6,392.5,2092.5,2873.1,159.2,70.6
0.117240,374.3,264.2,1842.7,199.1,2864.0,138.3,385.9,2097.7,2876.7,159.3,70.7
0.119240,371.4,244.6,1871.8,223.3,2873.7,117.5,380.1,2103.9,2880.3,159.3,70.8
0.121240,370.4,202.0,1936.8,272.0,2880.7,102.2,375.1,2111.1,2884,159.3,70.9
0.123240,368.5,148.5,2038.4,321.4,2886.7,94.3,370.7,2119.4,2887.7,159.3,71
0.125240,365.0,104.5,2147.8,338.7,2893.1,92.2,367,2128.9,2891.5,159.3,71.1
0.127240,361.8,80.6,2223.8,331.6,2899.7,94.1,363.8,2139.6,2895.4,159.3,71.1
0.129240,359.1,71.7,2263.8,326.8,2905.0,100.7,361.1,2151.4,2899.5,159.3,71.2
0.131240,356.7,69.8,2285.5,326.5,2909.1,111.6,358.8,2164.4,2903.7,159.3,71.2
0.133240,354.9,70.1,2299.1,323.2,2912.7,121.2,356.9,2178.4,2908,159.2,71.3
0.135240,353.2,70.4,2310.7,321.0,2917.1,124.5,355.2,2193.4,2912.4,159.2,71.3
0.137240,351.2,70.3,2324.9,331.4,2923.5,122.9,353.7,2209.1,2916.8,159.2,71.4
0.139240,349.3,68.8,2339.6,353.0,2931.4,120.4,352.4,2225.4,2921.3,159.1,71.5
0.141240,347.8,65.8,2345.1,364.2,2939.6,119.4,351.1,2242.2,2925.8,159.1,71.5
0.143240,346.8,63.0,2337.1,345.8,2947.1,120.5,349.9,2259.3,2930.2,159,71.6
0.145240,346.1,61.1,2326.5,315.1,2951.4,121.9,348.6,2276.3,2934.4,159,71.7
0.147240,345.4,59.7,2320.6,297.7,2949.8,118.7,347.3,2293,2938.4,158.9,71.7
0.149240,344.6,58.8,2318.5,300.0,2944.3,110.2,346,2309.3,2942.1,158.8,71.7
0.151240,344.3,58.5,2318.6,315.9,2939.1,101.2,344.7,2324.7,2945.5,158.8,71.7
0.153240,344.8,58.1,2320.2,335.8,2936.0,96.3,343.3,2339.2,2948.3,158.7,71.7
0.155240,345.4,57.2,2323.1,351.8,2934.7,96.6,342,2352.4,2950.5,158.6,71.7
0.157240,345.8,55.7,2326.7,358.4,2934.3,100.6,340.7,2364.1,2952.1,158.5,71.7
0.159240,345.7,53.7,2329.8,355.6,2934.8,106.6,339.4,2374,2953,158.4,71.7
0.161240,345.2,52.4,2332.3,349.4,2935.5,114.8,338.3,2382,2953,158.3,71.7
0.163240,344.8,52.1,2334.9,340.3,2935.4,123.5,337.5,2387.9,2952.1,158.2,71.7
0.165240,344.8,52.0,2338.3,323.1,2934.5,128.9,336.8,2391.4,2950.3,158.1,71.7
0.167240,345.1,52.3,2341.7,298.3,2934.0,130.9,336.5,2392.5,2947.4,158.1,71.7
0.169240,345.4,54.1,2342.3,273.3,2934.9,131.2,336.6,2391.1,2943.5,157.9,71.6
0.171240,346.3,56.7,2336.5,256.7,2936.5,128.9,337,2387.1,2938.6,157.8,71.6
0.173240,347.4,59.4,2327.0,251.3,2937.1,123.8,338,2380.4,2932.5,157.7,71.5
0.175240,348.7,61.8,2320.6,253.3,2935.2,117.4,339.5,2371.2,2925.4,157.6,71.4
0.177240,349.8,62.2,2319.4,255.1,2930.2,112.2,341.5,2359.3,2917.2,157.5,71.4
0.179240,350.6,59.7,2319.2,252.6,2923.2,110.2,344.1,2345,2908,157.4,71.3
0.181240,351.3,56.3,2315.4,250.3,2914.4,113.7,347.3,2328.4,2897.8,157.3,71.2
0.183240,352.5,54.7,2306.5,256.8,2901.8,122.6,351.1,2309.6,2886.7,157.2,71
0.185240,354.4,56.0,2294.9,276.6,2883.6,130.7,355.4,2288.8,2874.8,157.1,70.9
0.187240,356.6,59.7,2284.0,301.9,2863.3,130.9,360.3,2266.3,2862.2,156.9,70.8
0.189240,359.1,63.1,2273.4,314.2,2846.5,124.7,365.7,2242.3,2849.1,156.8,70.7
0.191240,361.7,63.3,2258.8,302.8,2834.0,117.4,371.5,2217.1,2835.5,156.7,70.6
0.193240,364.4,61.9,2238.7,277.0,2823.1,113.3,377.6,2191.1,2821.6,156.6,70.4
0.195240,367.5,61.7,2217.7,253.1,2811.8,114.6,384.1,2164.5,2807.5,156.5,70.3
0.197240,371.1,63.8,2199.3,241.0,2800.6,119.6,390.7,2137.7,2793.5,156.4,70.2
0.199240,375.3,68.9,2182.4,241.1,2789.8,125.6,397.5,2111.1,2779.6,156.3,70.1
0.201240,380.8,75.3,2164.4,246.6,2778.1,128.7,404.2,2085,2766.1,156.2,70.1
0.203240,387.8,79.8,2142.2,253.0,2763.6,126.0,410.8,2059.8,2753.1,156,70
0.205240,395.6,81.7,2112.6,266.3,2745.1,119.7,417.3,2035.8,2740.8,155.9,69.8
0.207240,404.1,83.7,2071.7,292.3,2724.7,113.1,423.3,2013.3,2729.2,155.8,69.7
0.209240,414.0,89.7,2017.7,317.3,2707.2,109.6,429,1992.7,2718.7,155.7,69.6
0.211240,425.5,102.1,1961.8,316.2,2695.3,118.0,434.1,1974.2,2709.2,155.6,69.5
0.213240,438.2,117.8,1922.8,295.7,2686.4,149.6,438.6,1958,2701,155.5,69.3
0.215240,451.1,130.8,1903.8,281.1,2680.0,208.0,442.4,1944.5,2694.1,155.4,69.2
0.217240,462.8,139.0,1892.1,279.3,2681.3,259.7,445.4,1933.8,2688.7,155.3,69
0.219240,473.8,145.3,1872.1,286.8,2688.1,248.9,447.6,1926.1,2684.8,155.3,68.8
0.221240,485.1,151.0,1840.9,289.4,2688.9,201.2,448.9,1921.4,2682.4,155.2,68.6
0.223240,496.7,150.5,1807.9,270.7,2680.8,160.9,449.4,1919.8,2681.6,155.1,68.3
