time,f1,b1,f2,b2,f3,b3,f1p,f2p,f3p,f0,intensity
0.025766,493.2,485.0,1771.4,245.7,2377.5,302.4,540.3,1771.9,2332.8,165.6,66.2
0.027766,513.3,384.5,1789.9,249.1,2379.8,299.9,541.2,1774.6,2335.5,165.2,67.1
0.029766,532.7,334.2,1810.2,238.8,2392.1,308.8,542.8,1779.1,2340.1,164.9,67.8
0.031766,546.6,302.6,1821.3,217.5,2399.6,313.1,544.8,1785.3,2346.4,164.6,68.5
0.033766,554.3,268.7,1824.5,197.5,2394.4,310.6,547.4,1793.1,2354.4,164.3,69
0.035766,558.9,237.6,1826.3,182.6,2386.6,300.8,550.3,1802.4,2364.1,163.9,69.5
0.037766,562.8,208.6,1828.4,175.5,2380.9,295.9,553.4,1813.1,2375.2,163.6,70
0.039766,567.2,186.4,1830.1,178.7,2376.8,301.0,556.7,1825,2387.8,163.3,70.3
0.041766,571.2,172.5,1831.3,187.8,2371.6,309.9,560.1,1837.9,2401.7,163,70.7
0.043766,573.1,164.0,1832.3,197.8,2360.6,320.2,563.3,1851.8,2416.7,162.7,70.9
0.045766,572.1,158.5,1833.6,204.6,2344.3,334.2,566.3,1866.3,2432.8,162.4,71.1
0.047766,570.0,150.4,1837.4,209.6,2328.1,362.6,568.8,1881.3,2449.8,162.1,71.3
0.049766,567.6,137.6,1847.4,221.0,2316.4,434.4,570.8,1896.7,2467.5,161.9,71.3
0.051766,565.5,124.9,1870.3,242.7,2303.5,599.8,572.2,1912.4,2485.9,161.6,71.4
0.053766,566.4,117.0,1912.5,241.9,2306.5,993.9,572.8,1928,2504.7,161.4,71.4
0.055766,571.7,114.5,1938.4,213.9,2479.3,1517.3,572.5,1943.5,2523.8,161.2,71.4
0.057766,578.0,112.0,1949.7,223.5,2803.8,1205.8,571.2,1958.9,2543.1,161,71.4
0.059766,580.2,108.8,1962.9,272.4,2758.6,727.0,568.8,1973.9,2562.4,160.8,71.4
0.061766,580.6,106.5,1988.2,308.5,2725.2,549.1,565.4,1988.5,2581.7,160.6,71.4
0.063766,582.0,104.8,2015.8,274.2,2712.4,435.2,560.7,2002.6,2600.8,160.5,71.3
0.065766,581.6,103.5,2029.4,214.3,2704.9,343.2,555,2016.3,2619.6,160.3,71.2
0.067766,575.6,104.4,2038.5,179.7,2698.2,278.9,548.1,2029.5,2638,160.2,71.1
0.069766,563.6,109.1,2049.4,174.6,2692.2,247.1,540,2042.1,2656,160,70.9
0.071766,547.4,116.6,2062.5,180.5,2688.0,234.2,531,2054.3,2673.5,159.9,70.7
0.073766,527.0,124.7,2075.2,183.9,2684.5,227.2,520.9,2066.1,2690.3,159.7,70.5
0.075766,506.8,129.0,2083.7,181.6,2680.7,218.3,509.9,2077.5,2706.6,159.6,70.3
0.077766,486.8,129.3,2090.3,176.2,2678.2,206.4,498.2,2088.7,2722.2,159.4,70.1
0.079766,468.6,125.5,2094.7,171.8,2680.1,200.5,485.8,2099.6,2737.1,159.2,69.9
0.081766,452.6,119.9,2095.8,173.3,2686.7,206.7,473,2110.5,2751.4,159.1,69.8
0.083766,436.1,113.3,2094.0,182.8,2697.9,222.6,459.7,2121.3,2765,158.9,69.7
0.085766,421.1,106.6,2094.6,196.4,2709.7,240.8,446.3,2132.1,2777.9,158.6,69.7
0.087766,407.6,100.4,2108.4,212.1,2720.5,270.6,432.7,2143.1,2790.1,158.4,69.7
0.089766,395.0,95.2,2142.0,224.5,2733.3,329.7,419.3,2154.3,2801.7,158.2,69.7
0.091766,383.6,90.0,2183.0,219.1,2759.6,404.9,406.2,2165.7,2812.7,157.9,69.7
0.093766,373.7,83.8,2212.7,197.2,2805.1,444.6,393.4,2177.4,2823.1,157.6,69.7
0.095766,366.6,78.0,2225.9,182.7,2841.7,433.5,381.2,2189.3,2832.9,157.2,69.7
0.097766,361.6,73.5,2239.0,177.5,2863.7,419.3,369.6,2201.6,2842.2,156.9,69.6
0.099766,358.5,72.1,2260.7,171.3,2882.0,419.7,358.8,2214,2851,156.5,69.5
0.101766,355.5,73.9,2283.4,159.5,2904.5,415.1,348.8,2226.6,2859.3,156.1,69.3
0.103766,351.6,76.1,2298.7,147.1,2923.1,392.1,339.7,2239.4,2867.1,155.7,69.1
0.105766,346.6,75.2,2303.1,139.1,2929.5,366.5,331.6,2252.1,2874.4,155.2,68.8
0.107766,339.1,69.3,2299.7,131.6,2932.9,336.3,324.5,2264.6,2881.3,154.8,68.6
0.109766,329.8,59.5,2290.3,123.4,2942.0,294.0,318.5,2276.9,2887.8,154.3,68.2
0.111766,322.0,49.0,2277.7,119.5,2952.7,250.8,313.4,2288.8,2893.9,153.8,67.9
0.113766,316.7,41.2,2264.8,127.4,2954.9,223.2,309.3,2300,2899.5,153.3,67.5
0.115766,313.8,39.0,2258.6,150.4,2944.4,222.8,306.1,2310.4,2904.7,152.8,67
0.117766,312.7,41.5,2263.0,186.1,2925.6,238.6,303.8,2319.9,2909.5,152.2,66.4
0.119766,313.6,47.0,2279.3,221.6,2909.9,246.1,302.3,2328.3,2913.8,151.7,65.7
0.121766,314.3,55.4,2306.3,245.6,2904.4,236.4,301.5,2335.4,2917.6,151.2,64.9
0.123766,312.3,69.7,2338.5,258.3,2904.9,222.1,301.3,2340.9,2921,150.6,64.1
0.125766,307.7,89.3,2355.2,269.8,2903.4,216.1,301.6,2344.9,2923.9,150.1,63.3
0.127766,304.0,109.9,2345.8,294.8,2893.5,218.2,302.3,2347.2,2926.3,149.6,62.5
0.129766,306.0,112.7,2309.7,327.8,2875.7,224.8,303.3,2347.7,2928.3,149,61.8
0.131766,310.9,97.9,2267.8,358.5,2858.4,243.8,304.5,2346.3,2929.7,148.5,61.4
0.133766,313.5,86.0,2247.1,396.7,2851.5,283.2,305.8,2343.1,2930.5,148,61.2
0.135766,313.6,84.3,2258.2,432.7,2858.8,308.6,307,2337.9,2930.9,147.6,61.2
0.137766,313.0,82.0,2282.7,463.6,2862.0,328.3,308.1,2330.9,2930.8,147.1,61.5
0.139766,311.1,71.1,2306.3,503.6,2851.9,389.7,309.1,2322.2,2930.1,146.7,61.7
0.141766,307.4,56.8,2326.2,554.5,2828.8,511.1,309.8,2311.9,2929,146.2,62
0.143766,302.8,45.7,2345.1,562.0,2832.9,697.3,310.1,2300,2927.3,145.8,62.2
0.145766,300.0,42.4,2340.1,468.0,2991.1,648.8,310.2,2286.9,2925.3,145.5,62.3
0.147766,299.0,47.7,2330.8,395.8,3037.3,388.8,309.9,2272.8,2922.8,145.1,62.3
0.149766,298.4,62.7,2333.2,393.8,3035.7,271.1,309.3,2257.8,2920,144.7,62.2
0.151766,297.5,83.3,2330.4,476.5,3026.5,229.7,308.2,2242.3,2916.8,144.4,62.1
0.153766,296.8,99.7,2306.6,666.2,3007.4,214.5,306.9,2226.6,2913.4,144.1,61.9
0.155766,295.1,102.8,2258.6,897.2,2986.3,202.9,305.3,2211,2909.7,143.8,61.8
0.157766,290.7,96.8,2234.4,1078.7,2974.8,195.9,303.4,2195.7,2905.8,143.6,61.8
0.159766,286.2,88.9,2269.3,1224.3,2974.7,199.6,301.3,2181.2,2901.9,143.3,61.7
0.161766,284.4,85.3,2300.5,1399.6,2976.1,215.5,299.1,2167.6,2897.8,143.1,61.7
0.163766,284.6,84.7,2244.3,1615.1,2971.2,272.2,296.9,2155.3,2893.8,142.9,61.6
0.165766,284.9,83.0,2098.5,1695.2,2907.7,456.1,294.6,2144.6,2889.9,142.7,61.6
0.167766,285.4,79.4,1978.0,1643.2,2785.4,409.6,292.4,2135.6,2886,142.6,61.6
0.169766,286.3,74.4,1956.0,1557.0,2750.4,363.0,290.4,2128.7,2882.3,142.5,61.5
0.171766,287.5,67.8,1998.7,1453.7,2747.7,341.7,288.6,2123.9,2878.8,142.3,61.5
0.173766,289.8,60.8,2066.3,1335.3,2760.3,335.5,287.1,2121.5,2875.6,142.3,61.5
0.175766,293.2,57.6,2130.0,1211.5,2792.0,334.7,285.9,2121.4,2872.6,142.2,61.5
0.177766,297.7,58.9,2151.4,1044.7,2834.5,293.8,285.1,2123.7,2870,142.1,61.4
0.179766,301.6,62.0,2123.9,917.6,2856.4,239.9,284.7,2128.5,2867.7,142.1,61.2
0.181766,303.4,63.6,2113.9,861.7,2864.6,217.0,284.7,2135.6,2865.8,142.1,61.1
0.183766,301.6,62.1,2134.5,848.4,2868.1,230.9,285.1,2145,2864.2,142.1,61
0.185766,297.6,57.0,2144.6,874.4,2865.0,285.3,286,2156.4,2862.9,142.2,60.9
0.187766,296.4,50.9,2128.2,919.3,2852.6,386.0,287.4,2169.7,2862,142.2,60.8
0.189766,300.1,49.8,2154.3,907.6,2862.6,514.2,289.1,2184.7,2861.4,142.3,60.7
0.191766,305.5,54.9,2224.6,817.0,2918.1,594.0,291.1,2200.9,2861.1,142.4,60.6
0.193766,309.9,63.3,2281.9,740.4,2947.1,562.4,293.5,2218.2,2861.1,142.5,60.5
0.195766,311.1,68.0,2309.0,731.6,2926.9,471.6,296.1,2236.3,2861.4,142.7,60.4
0.197766,309.0,66.4,2302.2,738.4,2901.8,338.6,298.9,2254.6,2861.8,142.8,60.4
0.199766,305.2,63.9,2289.2,707.2,2894.7,228.2,301.8,2273,2862.4,143,60.4
0.201766,302.1,65.0,2283.4,682.3,2892.2,171.8,304.7,2290.9,2863.1,143.1,60.5
0.203766,300.2,69.7,2265.3,714.9,2884.0,162.6,307.5,2308.1,2863.9,143.3,60.6
0.205766,298.7,78.1,2244.3,776.1,2865.1,192.8,310.3,2324.2,2864.7,143.5,60.8
0.207766,297.8,90.7,2269.8,814.9,2832.4,264.9,312.8,2339,2865.5,143.7,61
0.209766,299.5,101.7,2359.7,781.3,2794.4,383.9,315.1,2351.9,2866.2,143.9,61.3
0.211766,303.6,106.5,2431.7,610.2,2800.7,497.0,317,2363,2866.9,144,61.5
0.213766,309.3,106.3,2425.5,454.3,2855.0,439.1,318.6,2371.8,2867.4,144.2,61.7
0.215766,314.6,103.0,2407.7,380.5,2877.6,320.0,319.8,2378.2,2867.8,144.4,61.9
0.217766,318.4,97.3,2386.3,347.9,2881.5,229.1,320.5,2382.1,2868.1,144.6,62
0.219766,318.9,91.0,2361.5,350.0,2880.8,178.6,320.7,2383.4,2868.1,144.7,62
