time,f1,b1,f2,b2,f3,b3,f1p,f2p,f3p,f0,intensity
0.025093,1047.2,132.3,1495.3,78.2,2700.2,119.9,1051.4,1495.1,2711.8,0,67.5
0.027093,1043.5,146.3,1500.2,82.5,2706.0,149.3,1054.5,1494.4,2713.7,0,67.3
0.029093,1047.0,149.0,1497.7,94.5,2715.8,183.0,1059.6,1493.4,2716.8,0,67.2
0.031093,1055.7,145.6,1488.0,110.6,2728.9,203.2,1066.4,1492.1,2720.8,0,67.1
0.033093,1065.6,148.1,1479.8,125.5,2744.8,206.2,1074.5,1490.6,2725.4,0,67.2
0.035093,1077.5,162.1,1480.0,134.7,2756.2,194.6,1083.6,1489.1,2730.3,0,67.2
0.037093,1093.4,191.8,1484.6,135.7,2753.9,176.2,1093.2,1487.6,2735,0,67.2
0.039093,1114.5,237.1,1487.2,131.4,2740.3,160.7,1103,1486.3,2739.2,0,67.2
0.041093,1137.4,281.2,1488.4,127.9,2725.2,154.9,1112.4,1485.3,2742.7,0,67.3
0.043093,1150.4,299.4,1491.6,127.6,2717.4,162.5,1121.1,1484.6,2745,0,67.5
0.045093,1150.6,297.4,1494.6,128.5,2720.1,180.0,1128.6,1484.5,2746.2,0,67.7
0.047093,1148.7,297.1,1494.2,129.7,2729.6,191.2,1134.7,1484.9,2746.1,0,68
0.049093,1150.3,304.6,1491.4,129.8,2738.4,184.0,1139.2,1485.7,2744.8,0,68.4
0.051093,1151.3,314.3,1487.4,123.2,2741.8,166.3,1141.8,1487.1,2742.4,0,68.7
0.053093,1146.4,319.7,1484.2,107.9,2741.9,147.9,1142.6,1488.9,2739,0,69
0.055093,1135.4,317.5,1483.8,89.8,2742.3,131.7,1141.5,1491.1,2735.1,0,69.3
0.057093,1120.8,310.2,1486.6,74.4,2742.9,117.8,1138.7,1493.5,2730.9,0,69.6
0.059093,1104.1,303.3,1491.2,63.0,2741.6,105.7,1134.2,1496.2,2726.7,0,69.8
0.061093,1088.5,300.0,1496.3,55.9,2737.5,95.8,1128.4,1499,2722.9,0,70
0.063093,1080.6,301.6,1500.6,53.5,2731.1,87.8,1121.3,1501.8,2719.8,169.2,70.1
0.065093,1084.1,310.4,1503.8,55.8,2723.6,80.3,1113.4,1504.7,2717.5,169.5,70.2
0.067093,1095.0,326.6,1507.2,61.5,2717.7,72.3,1104.7,1507.4,2716.3,169.9,70.3
0.069093,1105.8,347.3,1511.2,67.4,2715.2,64.8,1095.6,1510.2,2716.2,170.2,70.3
0.071093,1110.8,369.0,1514.8,70.6,2715.8,60.1,1086.2,1512.9,2717.1,170.7,70.3
0.073093,1108.3,389.3,1517.6,70.4,2717.6,60.2,1076.7,1515.7,2719,171.1,70.3
0.075093,1100.1,407.9,1520.2,68.8,2719.2,65.4,1067.2,1518.7,2721.7,171.6,70.2
0.077093,1089.0,427.6,1523.2,67.2,2719.8,75.1,1057.7,1521.8,2724.9,172,70.2
0.079093,1074.5,445.7,1527.2,66.6,2719.6,89.0,1048.2,1525.4,2728.4,172.5,70.1
0.081093,1054.8,450.4,1531.7,66.7,2719.8,105.8,1038.6,1529.3,2731.9,173.1,70
0.083093,1030.7,435.2,1535.9,67.1,2721.5,125.9,1028.9,1533.9,2735.2,173.6,69.8
0.085093,1006.5,412.5,1540.2,69.4,2725.1,151.5,1018.8,1539.1,2738.1,174.1,69.7
0.087093,988.2,406.7,1545.7,77.0,2730.7,176.0,1008.3,1545,2740.6,174.7,69.6
0.089093,978.4,429.6,1552.7,93.1,2737.7,184.0,997.1,1551.6,2742.6,175.2,69.4
0.091093,971.3,455.9,1560.7,114.8,2744.3,176.6,985.1,1559,2744.3,175.8,69.4
0.093093,959.4,453.2,1568.4,133.2,2750.5,164.9,972.1,1567,2745.7,176.3,69.4
0.095093,945.9,432.6,1575.2,144.6,2757.6,151.7,958.1,1575.6,2747.2,176.9,69.5
0.097093,933.6,413.6,1581.2,150.3,2765.0,142.3,943,1584.7,2749.1,177.4,69.6
0.099093,921.4,399.6,1588.0,151.2,2772.4,140.6,926.8,1594.2,2751.7,177.9,69.8
0.101093,908.4,388.8,1596.4,150.0,2780.8,146.6,909.5,1603.8,2755.5,178.4,69.9
0.103093,893.7,378.4,1607.0,148.7,2788.6,156.0,891.2,1613.4,2760.6,178.9,70
0.105093,875.9,363.1,1619.5,145.9,2789.1,162.9,872,1622.8,2767.4,179.4,70.1
0.107093,853.7,335.4,1632.3,138.6,2778.1,165.0,852.3,1631.9,2776.1,179.8,70.2
0.109093,830.0,296.1,1643.3,126.4,2763.8,164.4,832.2,1640.4,2786.8,180.2,70.2
0.111093,809.2,256.2,1651.8,113.2,2759.0,167.6,812,1648.4,2799.3,180.6,70.3
0.113093,792.6,222.5,1659.0,101.5,2770.5,180.6,792,1655.6,2813.4,181,70.3
0.115093,779.3,195.4,1665.6,91.0,2799.1,199.4,772.6,1662,2828.8,181.3,70.3
0.117093,767.4,173.7,1671.6,82.0,2836.9,208.2,754.1,1667.6,2845.1,181.6,70.1
0.119093,755.8,157.6,1677.1,75.8,2870.0,196.8,736.8,1672.4,2861.7,181.9,69.9
0.121093,744.8,148.5,1681.8,73.5,2892.3,173.7,721.1,1676.4,2877.9,182.1,69.6
0.123093,734.2,147.1,1685.2,74.4,2907.4,151.0,707.2,1679.6,2893,182.3,69
0.125093,722.3,154.2,1686.9,77.1,2918.5,134.3,695.5,1682.2,2906.5,182.5,68.4
0.127093,706.1,171.1,1686.6,81.0,2925.8,124.7,686.1,1684.1,2917.7,182.7,67.7
0.129093,682.3,200.7,1684.3,86.6,2929.8,123.2,679.3,1685.4,2926.1,182.9,66.9
0.131093,646.6,249.0,1679.5,95.2,2932.1,130.6,675.1,1686.2,2931.3,183,66.2
0.133093,591.0,323.9,1669.9,105.3,2931.9,147.2,673.8,1686.4,2933.1,183.1,65.9
