time,f1,b1,f2,b2,f3,b3,f1p,f2p,f3p,f0,intensity
0.025365,450.4,340.0,872.3,421.6,2486.0,874.2,407.7,871.2,2600.6,182.6,66
0.027365,421.0,246.8,887.0,311.3,2548.3,748.6,407,873.2,2607,182.2,66.9
0.029365,402.1,184.6,895.7,250.6,2585.8,664.0,405.8,876.4,2617.5,181.9,67.5
0.031365,392.3,151.6,903.0,226.4,2611.2,642.5,404.3,880.6,2631.4,181.5,67.9
0.033365,387.8,132.9,907.4,216.5,2639.7,647.2,402.4,885.7,2648.3,181.1,68.3
0.035365,386.5,120.7,907.1,206.3,2685.9,628.1,400.3,891.6,2667.5,180.6,68.5
0.037365,387.0,111.7,904.6,191.9,2750.7,543.5,398.1,897.8,2688.1,180.2,68.7
0.039365,388.3,105.0,902.5,177.8,2806.4,387.4,395.8,904.2,2709.3,179.8,68.9
0.041365,389.2,100.8,900.3,168.1,2823.6,250.7,393.6,910.7,2730.3,179.3,69.1
0.043365,388.3,96.0,896.5,158.4,2820.7,176.3,391.5,917,2750.2,178.9,69.3
0.045365,385.8,90.3,892.7,149.2,2810.9,150.9,389.7,923,2768.2,178.4,69.5
0.047365,384.2,88.3,893.8,148.5,2799.6,150.1,388.1,928.7,2783.7,178,69.7
0.049365,384.8,90.6,900.6,154.3,2792.0,157.5,386.8,934,2796.2,177.5,69.9
0.051365,386.8,92.8,909.2,154.3,2788.7,158.9,385.8,939.1,2805.2,177,70
0.053365,388.7,92.0,916.6,142.4,2788.7,149.2,385.2,944.2,2810.5,176.6,70.1
0.055365,390.0,88.3,924.4,123.5,2788.9,136.3,384.8,949.5,2812.1,176.1,70.1
0.057365,390.8,83.1,934.6,108.5,2785.3,132.9,384.8,955.4,2810.1,175.6,70.1
0.059365,391.6,78.0,949.7,101.2,2775.9,140.4,384.9,962.2,2804.7,175.2,70.1
0.061365,391.9,73.5,972.1,99.5,2762.8,153.7,385.2,970.4,2796.2,174.7,70.1
0.063365,391.2,67.8,1002.4,93.2,2748.9,168.1,385.5,980.5,2785.3,174.3,70
0.065365,389.4,61.4,1034.9,76.7,2735.8,178.0,385.7,992.9,2772.4,173.8,70
0.067365,387.2,57.6,1057.6,60.5,2726.9,179.4,385.8,1008.2,2758.3,173.4,69.9
0.069365,385.0,56.0,1071.3,50.7,2721.8,176.4,385.6,1026.7,2743.5,172.9,69.9
0.071365,382.6,55.4,1081.0,48.0,2718.7,175.5,385.2,1048.9,2728.7,172.5,69.8
0.073365,380.6,55.9,1095.2,53.0,2714.8,183.5,384.3,1075,2714.6,172,69.8
0.075365,379.9,57.2,1123.9,64.6,2709.8,202.2,383,1105.2,2701.6,171.6,69.7
0.077365,379.5,57.1,1172.6,74.8,2709.2,223.4,381.3,1139.6,2690.2,171.1,69.6
0.079365,377.5,54.9,1224.1,74.6,2714.5,236.4,379,1178.1,2680.7,170.7,69.6
0.081365,374.0,52.5,1263.0,71.6,2716.1,254.6,376.3,1220.6,2673.4,170.3,69.5
0.083365,369.8,50.4,1288.4,76.4,2705.1,279.4,373.2,1266.8,2668.3,169.9,69.5
0.085365,365.4,49.3,1310.6,96.5,2690.3,278.2,369.7,1316.3,2665.5,169.4,69.5
0.087365,362.0,48.9,1335.4,140.7,2684.6,238.9,365.8,1368.4,2664.8,169,69.4
0.089365,359.4,47.7,1364.7,213.6,2681.3,190.1,361.7,1422.7,2666,168.6,69.4
0.091365,357.1,46.0,1387.3,290.6,2675.8,157.6,357.4,1478.3,2668.8,168.2,69.3
0.093365,354.7,45.4,1401.1,362.5,2670.3,142.2,353,1534.5,2672.9,167.8,69.1
0.095365,352.0,46.7,1418.2,457.9,2667.9,145.6,348.5,1590.4,2678,167.4,68.9
0.097365,348.7,50.1,1457.0,635.2,2671.3,168.9,344,1645.3,2683.6,167,68.8
0.099365,345.1,53.3,1552.2,983.3,2678.0,205.5,339.7,1698.1,2689.5,166.6,68.6
0.101365,340.4,52.6,1787.1,1500.6,2678.2,232.5,335.4,1748.3,2695.4,166.2,68.4
0.103365,332.9,47.9,2190.5,1579.7,2677.7,237.4,331.4,1795,2701,165.9,68.3
0.105365,324.8,45.6,2206.3,1228.1,2690.9,203.2,327.4,1837.5,2706.1,165.5,68.1
0.107365,319.0,53.5,2056.0,988.0,2703.4,150.8,323.7,1875.3,2710.7,165.1,68
0.109365,316.1,69.9,1932.4,844.2,2709.7,121.3,320.1,1908,2714.6,164.7,67.8
0.111365,314.6,86.4,1847.6,761.5,2714.2,110.1,316.6,1935.3,2718.1,164.4,67.6
0.113365,313.2,93.7,1797.1,732.4,2717.9,110.5,313.1,1956.9,2721.1,164,67.4
0.115365,310.7,89.4,1777.8,772.9,2720.5,119.5,309.7,1972.7,2723.8,163.7,67.1
0.117365,308.1,78.8,1796.2,909.7,2720.3,133.9,306.3,1982.9,2726.5,163.3,66.8
0.119365,306.3,67.9,1863.5,1162.4,2717.5,151.5,302.8,1987.7,2729.3,163,66.5
0.121365,304.1,59.0,1987.3,1480.5,2715.9,170.6,299.1,1987.4,2732.4,162.7,66.2
0.123365,299.6,53.4,2147.7,1809.8,2719.6,191.1,295.4,1982.4,2736,162.4,66
0.125365,293.0,52.4,2347.3,2448.9,2731.9,211.2,291.5,1973.2,2740.3,162.1,65.8
0.127365,286.7,56.4,2348.6,3632.8,2756.0,206.2,287.4,1960.5,2745.3,161.8,65.6
0.129365,281.1,62.5,2100.6,3379.7,2781.2,159.8,283.2,1944.8,2751.1,161.5,65.4
0.131365,275.7,67.4,1765.7,2116.1,2796.6,117.5,279,1926.9,2757.6,161.2,65.2
0.133365,269.4,70.5,1620.1,1464.7,2805.9,102.1,274.6,1907.5,2764.8,161,64.9
0.135365,263.4,73.0,1586.0,1194.5,2812.5,110.3,270.3,1887.3,2772.5,160.7,64.6
0.137365,258.9,74.3,1606.4,1076.3,2815.6,133.4,266.1,1867,2780.5,160.5,64.2
0.139365,257.2,72.8,1659.4,1001.2,2808.2,164.0,262.1,1847.3,2788.5,160.3,63.7
0.141365,258.0,69.1,1728.3,950.2,2789.3,198.3,258.4,1828.9,2796.2,160.1,63
0.143365,259.7,67.0,1805.7,965.2,2772.5,235.5,255.1,1812.2,2803.4,159.9,62.3
0.145365,259.6,68.7,1890.1,1024.6,2766.1,272.8,252.2,1797.8,2809.8,159.8,61.5
0.147365,255.9,74.8,1932.0,1030.9,2768.7,283.4,249.9,1786.2,2815,159.6,60.6
0.149365,250.1,88.8,1910.2,967.5,2782.4,266.2,248.2,1777.7,2818.9,159.5,59.7
0.151365,246.2,121.4,1874.1,932.3,2815.4,253.8,247.1,1772.4,2821.4,159.4,58.8
0.153365,246.0,178.0,1866.4,976.5,2865.4,247.7,246.8,1770.7,2822.2,159.3,58
