time,f1,b1,f2,b2,f3,b3,f1p,f2p,f3p,f0,intensity
0.025379,589.6,366.8,1124.5,471.2,2164.6,735.6,661.1,1160,2302,182.3,70.6
0.027379,640.1,387.5,1137.2,462.1,2214.8,920.3,663.9,1163.2,2305.2,182.1,70.9
0.029379,680.8,365.5,1166.1,433.0,2291.9,1083.2,668.5,1168.4,2310.5,182,71.2
0.031379,704.5,328.3,1195.6,378.9,2382.1,1170.1,674.6,1175.6,2317.8,181.8,71.5
0.033379,716.7,298.1,1213.7,318.1,2434.9,1186.9,682.2,1184.5,2326.8,181.6,71.9
0.035379,723.2,276.9,1222.0,270.7,2430.3,1183.9,691.1,1194.9,2337.4,181.4,72.2
0.037379,727.6,257.4,1226.8,234.2,2404.6,1169.7,700.9,1206.5,2349.4,181.2,72.6
0.039379,730.2,237.6,1230.4,205.2,2390.8,1135.5,711.5,1219.1,2362.7,181,72.9
0.041379,730.8,219.3,1233.9,182.3,2395.1,1087.2,722.7,1232.3,2377.2,180.8,73.2
0.043379,731.5,205.8,1239.3,165.8,2406.4,1049.7,734.2,1245.9,2392.6,180.5,73.4
0.045379,733.6,199.1,1247.3,154.4,2409.5,1046.4,745.9,1259.6,2409.1,180.3,73.5
0.047379,737.0,200.4,1257.7,145.7,2396.6,1090.7,757.6,1273.2,2426.5,180,73.6
0.049379,742.4,213.2,1270.9,138.6,2378.9,1194.9,769.3,1286.5,2445,179.7,73.7
0.051379,750.8,237.9,1285.5,133.3,2379.0,1330.5,780.9,1299.2,2464.7,179.4,73.8
0.053379,764.1,276.5,1300.9,130.0,2412.7,1469.4,792.5,1311.3,2485.6,179.1,73.9
0.055379,784.2,329.8,1316.4,131.4,2487.0,1584.6,804,1322.6,2507.8,178.8,74
0.057379,811.2,393.8,1332.0,138.8,2571.8,1630.5,815.6,1333.1,2531.6,178.5,74.1
0.059379,841.3,456.2,1347.5,148.6,2615.8,1606.1,827.4,1342.8,2556.8,178.1,74.2
0.061379,865.6,498.8,1360.6,153.1,2619.7,1498.9,839.3,1351.6,2583.6,177.8,74.3
0.063379,880.7,513.1,1370.4,149.8,2615.2,1301.1,851.5,1359.6,2611.8,177.5,74.3
0.065379,890.6,508.5,1378.7,143.9,2626.3,1118.8,864.1,1366.9,2641.2,177.2,74.3
0.067379,901.2,499.7,1386.8,139.2,2674.0,985.5,876.9,1373.4,2671.4,176.8,74.3
0.069379,909.3,499.6,1392.1,136.2,2745.4,868.1,890,1379.4,2702.2,176.5,74.3
0.071379,908.2,516.9,1392.7,135.0,2802.8,763.3,903.3,1384.7,2732.8,176.2,74.3
0.073379,901.8,546.3,1389.9,136.2,2823.7,702.6,916.6,1389.6,2762.7,175.9,74.4
0.075379,902.6,579.9,1386.6,140.1,2806.0,691.7,929.7,1394,2791.2,175.7,74.5
0.077379,918.6,612.2,1385.6,147.3,2765.2,711.4,942.3,1398,2817.6,175.4,74.6
0.079379,944.0,632.0,1388.5,156.2,2728.1,759.0,954.1,1401.7,2841.1,175.1,74.7
0.081379,962.7,639.9,1394.7,163.3,2707.9,866.7,964.8,1405,2860.9,174.9,74.8
0.083379,972.5,643.9,1402.5,165.6,2727.6,1040.1,974,1408.1,2876.6,174.7,74.9
0.085379,991.2,621.3,1412.5,159.3,2863.1,1111.6,981.4,1410.8,2887.7,174.5,74.9
0.087379,1000.7,573.5,1419.5,144.0,3021.8,887.7,986.6,1413.3,2893.8,174.4,75
0.089379,988.3,551.4,1420.0,132.0,3069.4,653.3,989.4,1415.6,2894.8,174.2,75.1
0.091379,970.9,557.2,1417.4,131.7,3040.6,562.0,989.6,1417.6,2890.8,174.1,75.2
0.093379,961.0,574.1,1414.1,141.4,2971.5,554.9,986.9,1419.5,2882.1,174,75.3
0.095379,959.5,590.3,1412.1,155.0,2883.9,569.1,981.4,1421.3,2869.2,173.9,75.4
0.097379,961.9,601.6,1413.6,167.6,2806.1,575.4,973,1423,2852.8,173.9,75.5
0.099379,967.8,603.8,1419.9,179.6,2757.3,561.1,961.8,1424.7,2833.9,173.8,75.6
0.101379,974.6,587.8,1431.5,189.0,2733.0,520.4,948,1426.4,2813.4,173.8,75.7
0.103379,972.2,564.7,1443.5,187.5,2721.3,472.2,931.9,1428.3,2792.5,173.8,75.8
0.105379,956.0,556.1,1450.4,174.9,2715.3,430.9,913.7,1430.4,2772.2,173.9,75.9
0.107379,928.5,565.7,1451.1,158.5,2716.5,400.9,893.9,1432.9,2753.6,173.9,76
0.109379,889.2,581.1,1447.3,143.9,2728.1,397.7,872.9,1435.6,2737.6,174,76.1
0.111379,835.8,573.6,1440.5,130.8,2749.3,454.3,851.1,1438.8,2725.2,174,76.1
0.113379,792.0,539.4,1435.2,118.5,2760.7,575.7,828.9,1442.4,2716.9,174.1,76.2
0.115379,768.6,514.8,1434.0,110.8,2748.8,680.7,806.9,1446.4,2713.2,174.2,76.2
0.117379,755.2,501.2,1436.2,108.2,2742.7,739.9,785.3,1450.8,2714.2,174.3,76.2
0.119379,744.5,483.4,1441.6,108.4,2745.3,795.0,764.5,1455.5,2719.7,174.4,76.1
0.121379,734.2,457.2,1449.5,109.6,2751.6,848.2,744.9,1460.5,2729.4,174.5,76
0.123379,723.7,425.4,1459.8,111.4,2770.7,854.0,726.7,1465.6,2742.7,174.6,75.9
0.125379,716.4,393.9,1471.1,112.3,2789.3,700.5,710.1,1470.7,2758.8,174.8,75.7
0.127379,713.1,366.4,1481.1,111.4,2771.1,484.2,695.3,1475.8,2776.6,174.9,75.5
0.129379,707.5,340.8,1487.4,111.7,2755.7,345.8,682.4,1480.5,2795.1,175,75.3
0.131379,695.5,320.0,1489.6,115.9,2760.7,280.6,671.4,1484.9,2813.1,175.1,75
0.133379,678.6,310.2,1489.8,123.6,2787.9,253.3,662.4,1488.7,2829.6,175.3,74.7
0.135379,659.1,314.8,1490.5,133.4,2832.6,229.7,655.4,1491.8,2843.6,175.4,74.4
0.137379,643.3,333.2,1493.2,141.7,2869.9,194.4,650.5,1494.1,2854.3,175.5,74
0.139379,633.5,365.7,1497.2,145.4,2883.3,155.8,647.5,1495.5,2861,175.6,73.7
0.141379,630.7,412.2,1501.6,142.7,2876.8,127.6,646.5,1495.9,2863.2,175.7,73.4
