time,f1,b1,f2,b2,f3,b3,f1p,f2p,f3p,f0,intensity
0.025261,538.9,80.9,1654.0,90.8,2535.7,258.6,535.3,1705.2,2556.5,165.9,73.6
0.027261,534.1,79.0,1667.0,96.7,2539.3,246.6,534.9,1706.9,2558.3,165.6,73.5
0.029261,530.6,80.1,1682.3,106.1,2548.0,235.4,534.3,1709.7,2561.2,165.3,73.4
0.031261,528.8,84.4,1700.7,119.0,2560.5,216.7,533.3,1713.6,2565.1,165,73.2
0.033261,527.8,90.7,1718.7,134.9,2571.8,197.0,532.1,1718.7,2570,164.7,73
0.035261,526.8,96.6,1737.0,152.5,2580.8,180.3,530.7,1724.8,2575.7,164.4,72.8
0.037261,525.6,98.5,1753.8,165.7,2588.1,168.5,528.9,1732.1,2582,164.1,72.6
0.039261,524.2,96.5,1767.5,176.2,2595.8,163.2,526.9,1740.5,2588.8,163.8,72.4
0.041261,523.3,92.8,1779.8,191.8,2605.8,164.9,524.5,1749.9,2595.8,163.4,72.3
0.043261,523.7,91.0,1790.4,215.2,2617.5,169.7,522,1760.3,2602.8,163.1,72.1
0.045261,524.4,93.4,1800.6,247.5,2630.6,171.8,519.1,1771.7,2609.8,162.8,71.8
0.047261,524.8,100.0,1811.4,271.5,2639.2,167.2,516,1784,2616.4,162.5,71.6
0.049261,524.5,107.0,1823.8,269.8,2641.0,161.1,512.6,1797.1,2622.6,162.2,71.4
0.051261,521.2,110.3,1834.3,254.4,2638.8,165.8,509.1,1810.9,2628.1,161.9,71.1
0.053261,513.9,107.7,1839.7,244.9,2635.4,185.5,505.3,1825.3,2633,161.6,70.9
0.055261,504.5,100.5,1843.4,243.1,2632.7,209.1,501.3,1840.1,2637,161.3,70.7
0.057261,495.4,92.3,1847.3,245.9,2631.8,218.0,497.2,1855.2,2640.1,161.1,70.6
0.059261,488.2,86.3,1851.3,249.6,2631.0,213.4,493.1,1870.5,2642.4,160.9,70.5
0.061261,482.6,84.2,1856.7,251.8,2629.4,206.1,488.8,1885.7,2643.7,160.7,70.5
0.063261,477.8,87.5,1864.5,251.8,2627.4,203.1,484.5,1900.6,2644.2,160.5,70.4
0.065261,472.3,94.7,1878.1,247.7,2625.0,202.3,480.2,1915.2,2644,160.4,70.4
0.067261,467.6,101.1,1900.0,238.1,2625.0,197.5,476,1929.2,2643,160.3,70.4
0.069261,464.8,104.1,1927.0,226.4,2628.3,189.0,471.9,1942.5,2641.5,160.3,70.4
0.071261,462.9,103.6,1954.9,215.6,2633.1,179.9,467.8,1954.9,2639.5,160.2,70.4
0.073261,461.3,100.5,1975.9,206.9,2638.0,170.0,464,1966.4,2637.2,160.2,70.4
0.075261,459.5,96.1,1990.4,201.2,2642.3,159.1,460.3,1976.7,2634.8,160.3,70.4
0.077261,457.1,92.2,1997.7,204.5,2643.4,155.2,456.8,1985.8,2632.3,160.3,70.4
0.079261,454.9,90.0,1999.9,217.9,2640.8,160.2,453.5,1993.7,2630,160.4,70.3
0.081261,453.7,91.3,2000.0,239.7,2636.6,169.1,450.5,2000.4,2628,160.6,70.3
0.083261,452.9,96.3,2000.6,264.5,2634.2,176.5,447.6,2005.8,2626.3,160.7,70.3
0.085261,451.2,101.7,2003.8,285.8,2633.6,184.4,445,2010,2625.2,160.9,70.4
0.087261,448.3,104.8,2009.5,293.5,2632.7,202.1,442.6,2013.1,2624.6,161.2,70.4
0.089261,445.3,106.3,2015.9,291.0,2629.9,237.6,440.4,2015,2624.6,161.4,70.5
0.091261,442.2,106.8,2022.5,286.0,2625.3,288.3,438.3,2016,2625.3,161.7,70.6
0.093261,439.3,106.7,2027.4,282.4,2623.7,316.2,436.4,2016.1,2626.6,162,70.7
0.095261,436.4,107.4,2029.2,282.4,2628.0,296.3,434.6,2015.5,2628.4,162.3,70.8
0.097261,433.6,107.4,2028.1,288.4,2633.2,244.4,432.9,2014.3,2630.9,162.7,71
0.099261,430.5,105.3,2025.6,297.8,2635.4,189.7,431.2,2012.6,2633.8,163,71.1
0.101261,427.0,102.7,2021.9,307.3,2635.8,141.2,429.6,2010.5,2637.2,163.4,71.2
0.103261,424.3,102.1,2016.9,310.8,2636.6,110.0,428,2008.1,2640.8,163.8,71.4
0.105261,421.9,102.8,2008.5,304.9,2638.7,93.0,426.5,2005.5,2644.6,164.2,71.5
0.107261,420.1,103.6,1996.9,292.6,2641.5,88.8,424.9,2002.8,2648.4,164.6,71.7
0.109261,419.4,102.8,1988.2,279.2,2644.0,93.7,423.3,2000,2652.2,165,71.9
0.111261,419.3,99.3,1987.0,267.7,2647.0,104.3,421.8,1997,2655.8,165.4,72
0.113261,419.2,95.1,1992.0,262.2,2652.6,114.5,420.3,1993.8,2659.1,165.8,72.1
0.115261,419.3,91.6,1997.1,262.7,2661.6,120.5,418.8,1990.5,2662,166.3,72.3
0.117261,419.2,89.1,1994.9,273.3,2669.8,121.2,417.4,1986.8,2664.4,166.7,72.4
0.119261,418.3,86.6,1982.2,300.8,2673.7,120.0,416.1,1982.7,2666.2,167.1,72.5
0.121261,416.3,82.3,1960.4,341.3,2674.0,118.6,415,1978,2667.4,167.5,72.5
0.123261,414.3,77.8,1942.7,364.5,2673.5,115.7,414.1,1972.6,2668,167.9,72.6
0.125261,412.9,75.2,1938.0,359.8,2673.3,111.6,413.4,1966.4,2668,168.3,72.5
0.127261,412.1,75.5,1942.5,345.0,2671.2,108.9,413,1959.1,2667.3,168.7,72.5
0.129261,411.8,77.7,1948.8,343.1,2666.1,107.6,413,1950.6,2666,169.1,72.5
0.131261,412.3,82.3,1954.8,358.4,2659.7,105.6,413.3,1940.9,2664.1,169.5,72.4
0.133261,414.0,87.9,1955.4,374.4,2655.3,102.6,414,1929.7,2661.7,169.8,72.4
0.135261,416.7,92.3,1941.2,375.7,2652.8,101.5,415.2,1917.1,2658.8,170.2,72.3
0.137261,419.5,93.6,1911.4,356.7,2651.5,107.9,416.8,1903,2655.6,170.5,72.3
0.139261,421.9,92.2,1881.4,330.2,2651.1,127.3,418.9,1887.3,2652,170.8,72.3
0.141261,424.3,89.8,1858.3,306.4,2650.5,163.7,421.3,1870.2,2648.3,171.1,72.3
0.143261,427.0,88.0,1842.3,288.5,2648.2,195.1,424.3,1851.8,2644.4,171.4,72.3
0.145261,430.4,87.1,1827.9,270.2,2644.1,195.1,427.5,1832.2,2640.5,171.7,72.3
0.147261,434.1,87.4,1814.2,254.1,2639.3,179.1,431.2,1811.5,2636.6,172,72.4
0.149261,437.1,88.5,1797.3,244.7,2634.1,178.4,435.1,1790.1,2632.8,172.3,72.4
0.151261,439.2,89.7,1771.6,236.6,2629.4,200.6,439.2,1768.3,2629.2,172.5,72.4
0.153261,440.8,91.4,1744.6,221.2,2627.2,233.3,443.5,1746.3,2625.7,172.7,72.4
0.155261,443.0,94.6,1723.1,198.6,2625.1,258.2,447.8,1724.5,2622.5,173,72.4
0.157261,446.2,97.2,1709.5,177.8,2621.2,261.6,452.1,1703.3,2619.6,173.2,72.4
0.159261,450.0,97.1,1699.3,161.3,2616.9,249.0,456.2,1683.1,2617,173.4,72.4
0.161261,454.5,94.9,1686.9,146.1,2611.9,232.3,460.1,1664.1,2614.7,173.5,72.4
0.163261,458.5,92.0,1671.7,134.4,2606.9,223.6,463.7,1646.9,2612.7,173.7,72.4
0.165261,462.1,89.7,1652.7,125.5,2603.6,219.4,466.9,1631.6,2611,173.9,72.5
0.167261,466.4,89.3,1631.4,116.6,2603.8,209.0,469.6,1618.7,2609.6,174,72.6
0.169261,471.7,89.6,1609.2,107.4,2606.2,198.8,471.8,1608.4,2608.6,174.2,72.7
0.171261,477.6,87.9,1584.7,98.6,2609.5,198.1,473.5,1600.8,2607.8,174.3,72.8
0.173261,482.4,84.3,1564.2,91.0,2612.8,203.4,474.4,1596.2,2607.4,174.4,72.9
0.175261,486.5,80.6,1549.5,85.3,2614.8,205.2,474.8,1594.7,2607.2,174.5,73
