time,f1,b1,f2,b2,f3,b3,f1p,f2p,f3p,f0,intensity
0.025170,373.0,105.1,991.9,323.8,2861.2,303.0,365.6,971.3,2897.6,162.5,65.9
0.027170,376.3,104.9,991.8,301.2,2882.1,261.9,367.3,969.7,2897.7,162.6,66
0.029170,378.4,99.1,988.4,270.0,2894.8,238.8,370.1,967.1,2897.9,162.7,66.1
0.031170,379.5,91.2,981.6,243.8,2897.1,234.3,373.9,963.5,2898.1,162.8,66.3
0.033170,381.1,83.5,972.2,224.3,2888.6,246.9,378.7,959.2,2898.3,162.9,66.4
0.035170,383.1,77.3,962.2,209.6,2870.9,279.1,384.2,954.1,2898.6,163,66.6
0.037170,385.2,72.8,952.4,198.8,2845.9,327.5,390.4,948.4,2898.8,163.1,66.7
0.039170,388.1,69.8,942.2,194.4,2816.4,380.6,397,942.4,2899,163.1,66.9
0.041170,392.1,70.1,934.6,204.3,2811.6,416.4,403.9,936.1,2899.2,163.2,66.9
0.043170,398.3,74.1,930.1,235.7,2859.0,430.5,410.9,929.8,2899.2,163.3,67
0.045170,406.6,77.3,927.3,284.1,2944.2,413.1,417.8,923.6,2899.2,163.4,67
0.047170,414.7,76.0,920.4,336.1,3021.9,404.0,424.4,917.7,2899,163.4,67
0.049170,422.3,72.4,904.4,399.3,3064.6,467.0,430.6,912.3,2898.6,163.4,67
0.051170,429.9,70.2,886.3,483.0,3034.1,615.1,436.2,907.5,2898.1,163.5,67
0.053170,438.0,68.7,873.1,594.4,2955.6,661.2,441.1,903.6,2897.3,163.5,67
0.055170,445.5,67.2,866.6,719.5,2931.7,587.7,445.1,900.5,2896.4,163.5,66.9
0.057170,451.7,65.6,862.3,846.9,2923.6,445.3,448.3,898.5,2895.3,163.5,66.9
0.059170,456.7,63.5,855.9,957.1,2896.7,329.7,450.4,897.5,2894,163.4,66.9
0.061170,459.7,61.3,845.1,1017.6,2869.2,276.0,451.7,897.7,2892.5,163.4,66.9
0.063170,462.2,59.2,832.5,1098.9,2849.0,255.1,451.9,899,2890.9,163.3,66.9
0.065170,464.7,57.3,826.6,1241.1,2840.3,263.6,451.2,901.3,2889.2,163.2,66.8
0.067170,465.7,56.3,851.3,1356.3,2842.7,301.3,449.7,904.7,2887.3,163.1,66.7
0.069170,464.4,57.3,925.0,1252.0,2858.6,361.3,447.5,909.1,2885.4,163,66.4
0.071170,461.1,59.4,982.8,926.3,2882.5,407.6,444.7,914.3,2883.5,162.9,66.1
0.073170,457.1,61.9,996.3,624.6,2889.2,405.7,441.4,920.1,2881.7,162.7,65.7
0.075170,452.0,66.5,990.9,416.0,2877.9,352.9,437.9,926.6,2879.9,162.6,65.2
0.077170,444.7,75.9,985.9,308.5,2866.8,297.9,434.2,933.4,2878.2,162.4,64.6
0.079170,431.8,92.5,988.2,259.4,2859.0,256.3,430.6,940.4,2876.8,162.2,64.1
0.081170,412.5,110.3,997.2,244.0,2855.7,220.1,427.3,947.3,2875.6,162,63.6
0.083170,393.7,118.3,1007.2,247.4,2854.9,187.8,424.4,954,2874.7,161.8,63.1
0.085170,384.2,118.6,1007.0,272.4,2854.0,166.7,422.2,960.4,2874.1,161.6,62.8
0.087170,388.7,124.0,985.8,309.4,2852.9,167.2,420.6,966.1,2873.9,161.4,62.5
0.089170,399.9,138.9,962.9,325.7,2855.0,185.2,420,971,2874.1,161.2,62.2
0.091170,408.6,157.2,959.9,308.1,2860.1,206.2,420.3,974.9,2874.8,161,62
0.093170,413.2,174.0,962.9,282.4,2859.0,219.0,421.6,977.7,2875.9,160.8,61.8
0.095170,419.4,184.3,960.2,274.5,2848.5,232.2,424.1,979.4,2877.5,160.6,61.7
0.097170,432.3,182.8,951.6,303.1,2839.2,260.1,427.6,979.7,2879.6,160.4,61.6
0.099170,449.7,169.0,944.1,367.9,2847.4,310.3,432.1,978.7,2882.2,160.2,61.6
0.101170,462.7,146.6,951.6,427.9,2889.7,355.8,437.7,976.2,2885.1,160,61.6
0.103170,468.0,124.6,970.8,427.0,2944.4,352.0,444.1,972.4,2888.5,159.8,61.6
0.105170,469.9,108.9,977.0,370.3,2969.8,327.6,451.3,967.3,2892.3,159.7,61.5
0.107170,472.5,106.2,955.3,313.3,2954.8,295.2,459.1,960.8,2896.4,159.5,61.5
0.109170,474.8,117.0,921.4,282.5,2936.2,228.8,467.4,953.2,2900.8,159.3,61.5
0.111170,473.5,135.6,893.0,269.9,2930.3,169.6,475.9,944.5,2905.4,159.2,61.4
0.113170,471.3,155.5,878.0,280.4,2928.7,143.8,484.4,934.9,2910.1,159,61.2
0.115170,475.2,180.6,869.0,331.6,2926.9,147.7,492.8,924.6,2914.9,158.9,60.9
0.117170,488.4,208.2,862.6,433.7,2924.8,188.0,500.8,913.8,2919.6,158.8,60.6
0.119170,499.8,222.8,871.1,534.9,2923.9,268.4,508.2,902.6,2924.3,158.7,60.1
0.121170,497.3,222.0,908.3,550.4,2924.4,380.1,514.8,891.3,2928.8,158.5,59.7
0.123170,493.8,213.4,942.7,504.2,2925.4,465.8,520.5,880,2933,158.5,59.2
0.125170,503.7,209.1,953.7,479.6,2931.3,497.5,525,869.1,2936.9,158.4,58.9
0.127170,526.3,219.3,941.6,518.9,2940.5,484.2,528.4,858.7,2940.3,158.3,58.8
0.129170,552.6,243.1,913.7,628.3,2944.6,463.4,530.3,849.1,2943.3,158.3,58.8
0.131170,576.3,263.5,875.8,799.5,2946.0,435.9,530.9,840.3,2945.7,158.2,58.9
0.133170,582.7,269.9,845.2,911.1,2949.7,393.9,530.1,832.7,2947.4,158.2,59.2
0.135170,577.4,283.4,815.8,880.0,2958.4,349.3,527.9,826.2,2948.5,158.2,59.5
0.137170,571.0,322.7,774.2,778.0,2972.7,315.0,524.2,821.1,2948.9,158.2,59.8
0.139170,558.9,386.1,736.1,669.3,2981.3,313.1,519.3,817.5,2948.6,158.3,60.2
0.141170,519.4,429.2,735.2,577.7,2963.1,348.5,513.2,815.4,2947.5,158.4,60.5
0.143170,470.0,389.4,781.1,524.8,2914.6,361.2,506.1,814.9,2945.6,158.4,60.8
0.145170,436.7,327.3,840.9,431.0,2878.1,320.1,498.2,815.9,2943,158.5,61.1
0.147170,423.6,284.1,874.2,317.9,2862.1,263.0,489.5,818.6,2939.6,158.7,61.4
0.149170,426.0,257.9,879.2,251.7,2860.7,216.8,480.4,822.8,2935.5,158.8,61.6
0.151170,436.9,231.1,872.9,228.4,2870.0,180.9,471.1,828.5,2930.6,159,61.9
0.153170,448.4,202.7,862.2,239.4,2886.8,155.5,461.7,835.6,2925.1,159.2,62.2
0.155170,453.7,178.7,848.3,270.6,2904.9,139.1,452.5,844,2919,159.4,62.5
0.157170,450.4,160.5,835.6,306.5,2920.6,131.3,443.8,853.6,2912.3,159.6,62.9
0.159170,440.0,147.5,842.8,327.3,2930.4,139.1,435.6,864.2,2905.2,159.9,63.2
0.161170,426.1,137.0,874.6,335.8,2935.1,168.8,428.2,875.8,2897.6,160.2,63.6
0.163170,415.6,129.7,906.2,331.3,2929.7,208.7,421.8,888.1,2889.6,160.4,64
0.165170,415.1,125.8,912.1,310.7,2911.6,218.6,416.4,901,2881.4,160.7,64.4
0.167170,422.1,122.4,900.6,275.1,2891.2,189.9,412.2,914.3,2873,161.1,64.8
0.169170,428.4,117.2,897.4,244.5,2878.1,161.7,409.2,927.9,2864.4,161.4,65.1
0.171170,430.3,114.9,911.2,236.8,2871.6,152.9,407.4,941.7,2855.8,161.7,65.5
0.173170,428.6,119.4,939.3,250.2,2868.7,156.5,406.9,955.4,2847.2,162,65.9
0.175170,426.3,127.6,971.0,268.3,2864.0,161.0,407.6,968.9,2838.8,162.4,66.2
0.177170,425.7,127.1,996.8,263.4,2849.6,163.2,409.3,982.1,2830.5,162.7,66.6
0.179170,426.6,108.9,1007.5,221.3,2831.0,157.5,412.1,994.9,2822.5,163,67.1
0.181170,428.2,86.6,1009.3,173.6,2819.8,143.4,415.7,1007.1,2814.8,163.4,67.5
0.183170,430.3,69.2,1009.1,136.8,2815.8,129.7,420,1018.6,2807.5,163.7,67.9
0.185170,432.3,59.0,1009.8,115.0,2816.5,123.8,424.8,1029.5,2800.6,164,68.2
0.187170,433.8,53.6,1013.1,103.2,2819.4,129.9,430,1039.4,2794.2,164.3,68.4
0.189170,434.8,51.8,1018.7,100.0,2819.1,150.7,435.3,1048.5,2788.4,164.6,68.4
0.191170,435.7,52.3,1024.5,104.4,2808.3,172.4,440.5,1056.7,2783.1,164.8,68.4
0.193170,437.2,55.2,1029.5,119.9,2787.6,170.4,445.5,1063.8,2778.5,165.1,68.4
0.195170,439.6,60.3,1034.0,152.7,2767.9,146.7,450.1,1069.9,2774.5,165.3,68.3
0.197170,443.1,67.4,1044.2,214.4,2751.2,121.8,454.1,1075,2771.2,165.5,68.2
0.199170,446.8,72.2,1072.3,284.8,2739.5,109.0,457.3,1078.9,2768.6,165.7,68.2
0.201170,449.2,71.7,1116.5,294.3,2732.1,108.2,459.7,1081.7,2766.8,165.9,68.1
0.203170,451.5,71.0,1157.2,243.4,2726.2,120.5,461.2,1083.4,2765.7,166.1,68.2
0.205170,454.6,74.5,1183.4,197.6,2721.6,151.8,461.7,1084,2765.3,166.3,68.2
