time,f1,b1,f2,b2,f3,b3,f1p,f2p,f3p,f0,intensity
0.025120,571.5,214.3,1060.7,217.7,2790.2,905.2,594.3,1073.1,2834.9,153.9,65.8
0.027120,576.0,222.1,1077.8,188.4,2865.2,988.3,594.4,1078.3,2824.9,154,66
0.029120,581.7,238.0,1092.3,164.0,2889.8,1102.7,594.6,1086.8,2808.7,154,66.2
0.031120,589.9,243.2,1102.9,145.1,2816.9,1125.3,594.9,1098.4,2786.9,154,66.5
0.033120,602.2,230.1,1114.3,134.2,2746.0,1080.8,595.3,1112.8,2760.1,154.1,66.7
0.035120,613.2,209.3,1127.3,130.8,2713.3,1067.1,595.9,1129.5,2729.2,154.1,67
0.037120,617.9,188.8,1140.3,129.4,2685.5,1050.0,596.6,1148.3,2695.4,154.1,67.2
0.039120,616.7,172.7,1154.0,132.3,2635.7,997.4,597.5,1168.6,2659.6,154.1,67.4
0.041120,613.2,161.2,1176.4,145.8,2573.5,930.0,598.5,1190.1,2623.1,154.1,67.6
0.043120,610.0,149.7,1215.4,160.1,2531.3,906.2,599.6,1212.4,2586.9,154.1,67.8
0.045120,606.3,137.3,1261.0,142.3,2519.2,936.1,600.7,1235,2552.2,154,68
0.047120,603.6,134.0,1287.5,106.3,2513.6,1000.5,601.8,1257.7,2519.9,154,68.3
0.049120,602.0,139.2,1299.0,80.4,2493.3,1088.8,602.7,1280.3,2491,153.9,68.7
0.051120,599.7,145.6,1305.7,68.3,2473.3,1122.3,603.4,1302.6,2466.2,153.8,68.9
0.053120,595.7,150.3,1314.9,65.9,2469.3,1065.6,603.6,1324.5,2446,153.7,69.2
0.055120,592.6,153.1,1331.5,69.9,2474.4,998.7,603.3,1346.2,2430.8,153.6,69.4
0.057120,591.6,150.0,1359.2,74.0,2472.8,964.3,602.4,1367.5,2421,153.4,69.5
0.059120,590.3,140.1,1391.5,71.0,2454.6,931.4,600.6,1388.9,2416.4,153.2,69.5
0.061120,587.6,129.7,1418.3,63.8,2430.3,859.0,598,1410.4,2417,153.1,69.6
0.063120,584.9,123.1,1435.6,59.0,2423.2,754.4,594.3,1432.3,2422.6,152.8,69.6
0.065120,582.6,121.5,1449.2,59.8,2432.7,643.7,589.7,1454.9,2432.8,152.6,69.5
0.067120,580.3,125.9,1465.6,68.4,2441.1,567.5,584,1478.5,2447.1,152.3,69.4
0.069120,577.7,131.9,1489.6,82.5,2443.5,527.7,577.2,1503.4,2464.9,152.1,69.3
0.071120,573.8,137.7,1518.0,96.5,2450.4,503.0,569.6,1529.7,2485.7,151.7,69.2
0.073120,567.7,149.5,1548.5,111.6,2470.6,478.5,561.1,1557.7,2508.8,151.4,69
0.075120,561.1,170.2,1579.0,128.4,2505.8,452.5,551.9,1587.4,2533.7,151.1,68.9
0.077120,556.3,197.1,1611.2,144.2,2556.0,414.0,542.1,1618.8,2559.8,150.7,68.7
0.079120,551.9,229.6,1647.1,158.4,2605.4,359.0,532,1651.8,2586.5,150.3,68.6
0.081120,542.4,272.2,1689.6,170.5,2637.3,304.2,521.8,1686.2,2613.3,149.9,68.5
0.083120,524.4,318.1,1731.6,175.2,2648.0,273.8,511.5,1721.9,2639.8,149.5,68.3
0.085120,500.4,365.2,1774.1,177.4,2650.7,273.7,501.4,1758.4,2665.5,149,68.2
0.087120,478.0,406.6,1821.8,179.3,2659.0,303.4,491.6,1795.3,2690.3,148.6,68
0.089120,463.7,424.9,1872.0,169.2,2689.2,339.2,482.3,1832.1,2713.7,148.1,67.8
0.091120,459.3,414.8,1905.9,149.2,2745.1,326.8,473.5,1868.4,2735.6,147.7,67.5
0.093120,455.3,396.4,1923.0,139.8,2799.1,262.3,465.2,1903.5,2755.8,147.2,67.2
0.095120,448.3,380.2,1933.5,150.4,2826.0,201.9,457.5,1937.1,2774.2,146.8,66.8
0.097120,441.8,359.4,1947.1,176.1,2830.3,164.7,450.2,1968.6,2790.6,146.3,66.6
0.099120,438.3,330.2,1967.6,200.4,2821.6,145.5,443.4,1997.5,2805.1,145.8,66.4
0.101120,436.5,295.0,1993.1,212.7,2810.9,132.3,436.8,2023.4,2817.6,145.4,66.2
0.103120,434.8,260.9,2016.2,214.9,2806.7,118.4,430.3,2046.1,2828,145,66
0.105120,430.8,229.3,2035.6,214.1,2809.5,102.3,423.9,2065.3,2836.4,144.6,65.9
0.107120,423.0,202.2,2053.6,219.9,2817.2,88.9,417.4,2080.9,2842.8,144.2,65.8
0.109120,413.6,177.9,2075.7,238.1,2826.0,82.8,410.7,2092.9,2847.3,143.8,65.6
0.111120,407.3,158.1,2099.0,261.9,2832.7,84.3,403.6,2101.3,2850.1,143.5,65.4
0.113120,404.4,145.9,2117.5,289.5,2838.3,91.4,396.1,2106.3,2851.1,143.2,65.1
0.115120,402.0,145.1,2125.2,329.3,2843.8,101.1,388.3,2108.2,2850.7,142.9,64.7
0.117120,394.7,154.0,2123.6,389.3,2848.5,106.2,380.2,2107.4,2848.9,142.6,64.3
0.119120,380.2,166.0,2123.2,462.2,2850.2,105.6,371.8,2104.3,2846.1,142.4,64
0.121120,359.8,175.7,2133.4,535.3,2849.8,107.1,363.3,2099.3,2842.3,142.2,63.6
0.123120,339.1,179.1,2144.3,569.5,2849.5,114.2,354.8,2092.9,2838,142.1,63.2
0.125120,325.1,184.0,2136.7,562.9,2851.8,127.0,346.6,2085.8,2833.3,142,62.7
0.127120,321.6,203.7,2107.5,565.7,2855.8,142.4,338.9,2078.3,2828.6,141.9,62.1
0.129120,324.4,242.0,2059.3,601.8,2856.6,159.6,331.9,2071,2824.1,141.8,61.3
0.131120,325.1,286.9,2005.5,654.5,2852.0,189.5,325.7,2064.4,2820,141.8,60.6
0.133120,320.1,326.0,1973.8,701.1,2841.4,252.0,320.8,2058.8,2816.6,141.8,59.7
0.135120,315.7,350.6,1994.5,720.8,2813.6,348.2,317.1,2054.6,2814,141.8,58.9
0.137120,320.5,351.6,2060.5,680.0,2763.2,404.1,314.8,2051.9,2812.4,141.8,58.1
0.139120,336.9,317.0,2120.8,550.2,2755.3,352.8,314,2051,2811.8,141.9,57.3
