time,f1,b1,f2,b2,f3,b3,f1p,f2p,f3p,f0,intensity
0.025138,1014.7,270.5,1397.6,149.6,2612.2,190.8,1024.2,1385.1,2580.4,166.9,68.2
0.027138,1016.1,258.2,1393.7,130.8,2606.5,173.0,1021.7,1385.3,2581.3,166.5,69.9
0.029138,1017.3,256.4,1389.5,117.8,2599.6,160.1,1017.5,1385.6,2582.9,166,71.3
0.031138,1018.9,260.4,1385.7,106.3,2591.9,150.7,1011.7,1386.1,2584.9,165.5,72.4
0.033138,1019.2,262.1,1382.7,94.8,2585.1,144.3,1004.7,1386.7,2587.3,165,73.3
0.035138,1017.0,256.2,1380.1,84.2,2578.8,140.4,996.4,1387.5,2589.9,164.5,74
0.037138,1010.8,244.4,1377.1,76.0,2571.1,140.0,987.3,1388.5,2592.7,163.9,74.5
0.039138,998.9,234.7,1375.0,72.2,2565.0,144.7,977.4,1389.6,2595.4,163.3,74.7
0.041138,978.9,229.3,1375.8,73.4,2564.9,155.6,967.2,1390.9,2598,162.6,74.8
0.043138,954.8,222.8,1381.8,81.6,2573.8,172.8,956.8,1392.4,2600.2,162,74.7
0.045138,933.5,208.1,1393.3,96.0,2588.5,192.2,946.5,1394,2601.9,161.3,74.5
0.047138,914.6,184.5,1407.4,110.8,2602.7,210.9,936.7,1395.8,2603.1,160.6,74.2
0.049138,898.4,163.5,1415.0,112.5,2607.3,225.1,927.5,1397.7,2603.5,159.9,74.1
0.051138,887.7,152.6,1415.3,99.8,2604.9,229.8,919.3,1399.7,2603.2,159.2,74
0.053138,883.7,150.6,1414.6,84.7,2605.9,226.5,912.1,1401.9,2602,158.5,74
0.055138,885.1,157.1,1414.3,76.5,2612.7,221.7,906.1,1404,2600.1,157.8,74.1
0.057138,888.1,170.8,1412.5,73.9,2619.7,217.9,901.5,1406.2,2597.3,157.1,74.2
0.059138,889.7,188.3,1409.0,74.9,2618.1,211.7,898.3,1408.3,2593.8,156.4,74.3
0.061138,890.0,210.1,1406.2,78.8,2608.0,198.5,896.7,1410.3,2589.7,155.7,74.4
0.063138,892.4,240.8,1405.5,86.3,2597.0,180.1,896.5,1412.1,2585,155,74.4
0.065138,900.7,270.1,1406.0,94.2,2589.5,164.8,897.7,1413.8,2580,154.3,74.5
0.067138,917.0,292.8,1405.9,101.7,2579.9,156.3,900.3,1415.2,2574.7,153.6,74.5
0.069138,937.3,308.3,1403.8,110.8,2564.4,159.2,904.1,1416.3,2569.3,153,74.5
0.071138,951.4,311.1,1400.8,118.8,2546.4,172.1,908.9,1417.1,2564,152.3,74.4
0.073138,954.2,294.9,1400.2,121.4,2531.9,188.6,914.7,1417.6,2558.9,151.7,74.3
0.075138,950.2,269.5,1404.9,122.0,2527.7,198.7,921.2,1417.7,2554.3,151.1,74.2
0.077138,945.5,244.6,1414.4,126.6,2532.6,199.3,928.2,1417.5,2550.2,150.5,74.1
0.079138,942.5,224.6,1424.8,131.8,2540.3,194.4,935.5,1417,2546.7,150,73.9
0.081138,940.0,209.1,1434.2,133.9,2546.1,193.2,942.9,1416.1,2543.9,149.5,73.6
0.083138,938.1,203.2,1440.2,134.6,2547.7,205.4,950.2,1415,2541.9,149,73.4
0.085138,938.9,206.7,1439.8,133.5,2547.2,227.4,957.1,1413.6,2540.7,148.5,73.2
0.087138,944.9,214.8,1430.9,126.0,2549.2,240.9,963.6,1412.1,2540.2,148,73
0.089138,955.4,223.8,1416.5,111.9,2554.4,227.5,969.5,1410.5,2540.4,147.6,72.8
0.091138,965.4,231.1,1403.5,98.2,2556.9,200.6,974.6,1408.8,2541.3,147.2,72.8
0.093138,971.4,236.0,1395.6,90.6,2556.6,179.1,978.8,1407.2,2542.7,146.8,72.8
0.095138,972.6,240.7,1393.2,92.8,2556.7,169.5,982.1,1405.6,2544.6,146.4,72.8
0.097138,971.5,245.3,1393.8,101.5,2556.3,164.3,984.4,1404.2,2546.7,146.1,72.8
0.099138,970.9,243.5,1395.7,107.0,2554.0,156.6,985.7,1403,2549,145.7,72.9
0.101138,973.0,235.9,1398.1,105.9,2550.1,146.0,985.9,1402.1,2551.2,145.4,73
0.103138,977.2,229.5,1400.0,102.1,2544.3,136.0,985.1,1401.4,2553.4,145.1,73.1
0.105138,979.7,229.4,1400.6,96.4,2538.9,129.7,983.3,1401,2555.3,0,73.2
0.107138,979.0,233.0,1400.6,87.9,2536.1,126.7,980.6,1400.9,2556.8,0,73.3
0.109138,976.5,238.4,1401.1,81.6,2537.1,129.3,976.9,1401.1,2557.9,0,73.4
0.111138,973.9,244.0,1401.8,80.2,2541.3,136.5,972.5,1401.5,2558.6,0,73.4
0.113138,970.4,244.4,1401.5,79.7,2548.1,142.5,967.2,1402.1,2558.8,0,73.4
0.115138,966.8,238.5,1399.9,77.3,2555.1,145.0,961.3,1402.7,2558.5,0,73.3
0.117138,964.7,232.1,1398.5,77.5,2561.8,153.5,954.7,1403.4,2557.8,0,73
0.119138,964.2,229.5,1398.8,86.1,2566.8,176.1,947.6,1403.9,2556.8,0,72.6
0.121138,961.4,224.5,1400.6,98.6,2568.1,199.1,940,1404.2,2555.6,0,72
0.123138,952.3,210.3,1403.1,103.8,2564.8,200.7,932,1404.2,2554.4,0,71.4
0.125138,939.5,191.3,1406.3,98.3,2558.6,181.1,923.6,1403.7,2553.2,0,70.7
0.127138,927.2,175.1,1410.6,88.9,2553.0,157.9,914.8,1402.7,2552.3,0,70.1
0.129138,918.3,169.3,1411.7,80.7,2551.9,143.0,905.8,1401,2551.8,0,69.5
0.131138,908.9,169.8,1408.2,74.2,2554.4,136.2,896.5,1398.6,2551.9,0,69
0.133138,891.4,170.4,1402.9,70.0,2559.5,139.1,887,1395.4,2552.7,0,68.6
0.135138,867.5,163.1,1398.1,68.5,2566.8,151.9,877.4,1391.3,2554.4,0,68.3
0.137138,845.0,145.3,1392.2,65.4,2574.3,161.1,867.6,1386.3,2557,0,68
0.139138,830.0,127.1,1383.5,59.8,2579.1,155.2,857.8,1380.4,2560.6,0,67.7
0.141138,820.8,117.2,1373.5,56.0,2578.9,144.0,847.9,1373.7,2565.3,0,67.4
0.143138,816.2,125.3,1362.7,58.7,2574.3,139.9,838.1,1366.2,2571,0,67
0.145138,816.1,153.5,1352.8,65.0,2570.4,143.6,828.3,1358,2577.7,0,66.6
0.147138,815.4,180.7,1343.1,64.5,2571.0,143.2,818.7,1349.2,2585.3,0,66.2
0.149138,810.3,183.5,1333.9,56.5,2575.1,134.7,809.3,1340,2593.6,0,65.7
0.151138,803.4,172.2,1323.9,49.4,2580.7,123.8,800.2,1330.5,2602.5,0,65.2
0.153138,797.2,166.9,1311.1,47.4,2588.2,114.4,791.6,1320.9,2611.8,0,64.6
0.155138,792.9,181.0,1298.3,51.7,2598.1,108.2,783.3,1311.5,2621.2,0,63.9
0.157138,786.7,209.6,1289.6,60.0,2611.9,104.8,775.7,1302.3,2630.5,0,63.4
0.159138,775.8,233.5,1286.5,71.4,2627.9,107.3,768.6,1293.6,2639.5,0,62.9
0.161138,764.2,244.9,1285.9,88.4,2644.2,111.4,762.4,1285.7,2647.9,0,62.5
0.163138,753.2,243.1,1284.8,104.6,2659.5,110.0,756.9,1278.6,2655.5,0,62.2
0.165138,743.5,231.7,1282.8,101.6,2672.1,102.5,752.3,1272.5,2662,0,62
0.167138,738.4,221.2,1281.1,85.2,2685.0,93.3,748.7,1267.7,2667.3,0,61.8
0.169138,743.0,225.3,1277.7,76.0,2692.9,86.3,746.1,1264.1,2671.2,0,61.6
0.171138,753.8,245.4,1268.7,79.7,2689.5,79.3,744.5,1261.9,2673.5,0,61.4
0.173138,764.3,279.8,1250.6,91.3,2679.6,69.1,743.9,1261.2,2674.4,0,61.2
