time,f1,b1,f2,b2,f3,b3,f1p,f2p,f3p,f0,intensity
0.025544,345.5,1460.0,1608.2,391.7,2567.0,1239.4,619.4,1563.3,2433.4,282.3,69.6
0.027544,479.3,1349.3,1624.2,443.9,2516.7,1395.6,621.7,1562.4,2428.9,281.6,70.2
0.029544,612.3,1068.2,1630.6,426.5,2550.7,1309.6,625.5,1560.8,2421.4,280.8,70.9
0.031544,684.5,742.4,1619.0,341.0,2550.8,1053.2,630.8,1558.5,2411.3,280,71.6
0.033544,715.0,526.5,1610.2,266.9,2496.6,902.8,637.3,1555.4,2398.6,279.2,72.2
0.035544,724.9,379.2,1605.5,227.0,2386.9,768.3,645,1551.6,2383.6,278.4,72.9
0.037544,723.3,282.5,1598.1,218.0,2279.6,624.7,653.7,1547,2366.7,277.6,73.6
0.039544,719.8,223.3,1584.1,227.8,2210.6,526.1,663.2,1541.6,2348.3,276.7,74.3
0.041544,718.5,185.0,1559.9,247.6,2170.6,463.5,673.2,1535.2,2328.6,275.8,74.9
0.043544,720.1,162.5,1528.8,265.3,2162.2,426.8,683.6,1527.8,2308.2,275,75.5
0.045544,723.9,147.7,1488.4,270.3,2181.5,392.2,694.2,1519.4,2287.4,274.1,76.1
0.047544,727.7,136.9,1440.2,243.8,2213.9,334.0,704.6,1510,2266.6,273.3,76.6
0.049544,730.8,127.9,1399.4,188.7,2233.3,258.3,714.8,1499.5,2246.4,272.5,77.2
0.051544,735.4,120.3,1374.3,128.4,2229.6,191.7,724.4,1488,2227.2,271.6,77.8
0.053544,741.3,114.5,1361.7,84.6,2212.7,154.8,733.2,1475.3,2209.2,270.8,78.3
0.055544,747.7,108.0,1353.3,54.4,2190.8,142.5,741.1,1461.7,2192.9,270,78.9
0.057544,753.7,104.3,1347.9,37.6,2167.7,159.1,747.8,1446.9,2178.6,269.3,79.4
0.059544,759.1,110.7,1345.2,31.1,2146.8,212.5,753.3,1431.3,2166.6,268.5,79.8
0.061544,763.9,133.4,1344.2,30.9,2132.0,307.4,757.4,1414.8,2157.2,267.8,80
0.063544,766.6,167.8,1344.1,34.2,2127.6,386.1,759.9,1397.5,2150.4,267,79.9
0.065544,765.8,211.4,1344.3,40.3,2129.9,410.1,760.9,1379.5,2146.5,266.3,79.7
0.067544,760.4,257.5,1344.9,49.1,2137.4,397.8,760.4,1361.1,2145.5,265.6,79.3
0.069544,749.9,293.4,1345.7,59.4,2147.1,376.8,758.2,1342.2,2147.3,264.9,78.7
0.071544,734.1,307.6,1345.4,69.3,2156.0,351.2,754.4,1323.2,2152.1,264.3,78
0.073544,719.5,302.0,1343.2,76.1,2162.5,330.1,749.1,1304.1,2159.6,263.6,77.3
0.075544,708.5,292.0,1339.3,83.8,2171.2,323.1,742.3,1285.2,2169.8,262.9,76.8
0.077544,703.4,278.7,1330.5,94.9,2186.1,343.7,734.2,1266.6,2182.4,0,76.5
0.079544,704.5,257.0,1309.6,97.7,2211.1,393.2,724.9,1248.5,2197.3,0,76.5
0.081544,703.9,224.7,1281.5,77.6,2250.5,459.3,714.5,1231,2214.1,0,76.8
0.083544,698.3,202.3,1263.2,57.1,2290.3,517.8,703.2,1214.4,2232.7,0,77.3
0.085544,689.3,201.9,1249.7,46.0,2327.5,543.0,691.1,1198.7,2252.7,0,77.7
0.087544,678.5,220.8,1236.2,41.8,2359.6,522.4,678.4,1184.1,2273.8,0,78.1
0.089544,666.6,242.4,1222.4,41.3,2378.3,487.7,665.3,1170.7,2295.7,0,78.3
0.091544,650.5,249.5,1210.2,42.5,2387.5,462.8,651.9,1158.6,2318.2,0,78.5
0.093544,632.7,240.1,1202.7,45.4,2394.5,459.9,638.4,1147.8,2340.9,0,78.5
0.095544,615.9,225.9,1199.5,52.0,2402.1,489.1,625,1138.3,2363.7,0,78.5
0.097544,605.3,216.8,1198.2,64.7,2411.4,563.9,611.7,1130.2,2386.2,0,78.5
0.099544,601.0,215.8,1191.7,81.2,2431.9,665.9,598.7,1123.4,2408.3,254,78.5
0.101544,597.0,216.4,1169.3,95.7,2471.1,734.5,586.2,1117.9,2429.8,253,78.5
0.103544,584.5,204.6,1131.7,95.1,2491.3,696.5,574.1,1113.5,2450.5,252.1,78.6
0.105544,564.0,175.4,1091.7,80.0,2465.9,601.4,562.5,1110.1,2470.5,251,78.8
0.107544,548.1,149.6,1066.6,69.1,2416.7,552.4,551.6,1107.6,2489.6,249.9,78.9
0.109544,539.4,139.4,1053.6,69.9,2371.5,572.2,541.2,1105.9,2507.8,248.8,79
0.111544,534.1,141.0,1044.2,79.3,2348.0,640.6,531.5,1104.7,2525,247.6,79
0.113544,531.4,150.2,1037.8,91.4,2365.6,733.2,522.4,1103.8,2541.5,246.3,78.9
0.115544,529.5,159.7,1034.7,99.6,2421.2,824.0,513.9,1103.2,2557.1,244.9,78.7
0.117544,526.0,159.5,1034.2,100.0,2481.8,856.4,505.8,1102.5,2572.1,243.5,78.5
0.119544,518.9,147.8,1034.0,96.4,2520.4,820.3,498.3,1101.5,2586.4,242,78.1
0.121544,507.6,128.0,1033.7,93.7,2546.0,730.0,491.2,1100.1,2600.3,240.4,77.7
0.123544,495.5,108.8,1034.6,96.9,2570.2,616.6,484.4,1098.2,2613.8,238.7,77.1
0.125544,485.2,95.6,1038.3,112.8,2608.1,505.0,477.9,1095.4,2627,237,76.5
0.127544,479.2,93.7,1043.9,146.2,2673.1,412.5,471.7,1091.8,2640.1,235.2,75.7
0.129544,477.0,103.3,1047.1,184.4,2741.1,309.9,465.6,1087.2,2653.1,233.3,74.9
0.131544,475.5,123.6,1046.8,208.0,2781.0,211.1,459.7,1081.5,2666.1,231.4,74
0.133544,471.0,149.0,1047.5,215.1,2798.4,151.0,453.9,1074.6,2679.1,229.4,73
0.135544,456.7,172.2,1051.6,216.2,2808.5,116.2,448.1,1066.6,2692.2,227.4,71.9
0.137544,428.9,169.7,1053.1,201.7,2812.9,101.1,442.3,1057.5,2705.3,225.3,70.9
0.139544,403.2,137.7,1047.5,166.8,2812.7,102.7,436.7,1047.4,2718.3,223.1,70.1
0.141544,391.9,103.3,1038.5,129.8,2808.7,118.6,431.1,1036.2,2731.3,221,69.5
0.143544,392.9,82.7,1032.1,110.2,2803.2,135.9,425.7,1024.3,2744.1,218.8,69.1
0.145544,398.7,70.6,1031.9,105.3,2802.5,157.3,420.4,1011.6,2756.5,216.5,69
0.147544,404.6,63.7,1035.3,113.6,2808.9,195.7,415.3,998.4,2768.4,214.3,69.2
0.149544,407.8,59.2,1036.0,132.5,2818.8,257.3,410.6,985,2779.6,212.1,69.5
0.151544,408.0,54.8,1033.4,163.8,2821.0,355.2,406.3,971.5,2789.9,209.9,70
0.153544,405.6,49.3,1032.0,201.0,2792.9,502.0,402.6,958.1,2798.9,207.7,70.4
0.155544,401.4,41.9,1036.4,239.3,2724.8,667.5,399.4,945.1,2806.6,205.6,70.7
0.157544,396.9,34.5,1046.3,268.8,2677.7,664.2,396.9,932.8,2812.7,203.5,71
0.159544,393.9,29.0,1052.3,293.0,2685.2,496.0,395.3,921.4,2816.9,201.4,71.1
0.161544,392.4,26.0,1044.0,329.0,2716.3,314.8,394.6,911.1,2819.1,199.4,71.1
0.163544,392.2,26.3,1013.2,360.6,2746.7,217.0,394.9,902.1,2819,197.5,71
0.165544,392.2,29.9,970.3,350.8,2768.1,172.5,396.3,894.7,2816.5,195.7,70.7
0.167544,392.1,36.5,937.6,310.0,2778.8,155.8,398.8,888.9,2811.5,193.9,70.3
0.169544,392.5,45.1,911.4,271.3,2782.2,154.6,402.6,885,2803.8,192.2,69.9
0.171544,395.3,56.5,880.6,240.4,2778.6,167.0,407.5,883,2793.5,190.6,69.4
0.173544,401.5,71.1,847.7,222.6,2767.6,188.5,413.7,882.9,2780.5,189.1,68.9
0.175544,412.7,94.6,812.6,218.2,2752.0,214.8,421,884.9,2764.9,187.7,68.3
0.177544,431.2,129.4,779.3,227.5,2737.5,240.1,429.5,888.7,2746.9,186.4,67.7
0.179544,458.3,162.8,752.7,249.4,2722.1,255.1,439.1,894.5,2726.5,185.2,67.1
0.181544,493.7,163.5,740.4,303.5,2703.0,249.7,449.6,902,2704,184.1,66.5
0.183544,514.9,119.8,760.4,388.8,2691.6,229.6,461,911.2,2679.7,183,66.2
0.185544,518.0,76.6,807.5,456.8,2691.1,209.5,473.1,921.8,2653.9,182.1,66
0.187544,516.0,53.0,853.2,461.3,2696.5,196.6,485.7,933.6,2626.9,181.3,66
0.189544,515.1,43.0,881.3,417.4,2698.8,194.5,498.7,946.4,2599.1,180.5,66.2
0.191544,515.7,39.3,898.3,366.1,2686.3,206.5,511.9,959.9,2571,179.8,66.4
0.193544,518.1,38.7,912.3,331.7,2647.8,226.3,525,973.8,2542.9,179.3,66.6
0.195544,522.4,38.7,927.6,306.7,2578.5,235.2,537.9,987.8,2515.3,178.7,66.7
0.197544,528.4,37.5,943.9,288.7,2504.2,214.9,550.4,1001.6,2488.7,178.3,66.7
0.199544,535.5,34.6,964.6,285.6,2453.1,181.3,562.2,1014.9,2463.5,177.9,66.6
0.201544,544.5,31.0,997.8,303.3,2421.0,149.9,573.1,1027.5,2440.2,177.6,66.3
0.203544,554.8,28.4,1046.4,328.9,2402.1,131.5,583,1039,2419,0,65.9
0.205544,567.9,29.0,1112.5,325.6,2386.0,125.5,591.7,1049.2,2400.4,0,65.5
0.207544,585.4,35.7,1163.9,278.0,2365.7,127.9,599.1,1057.8,2384.8,0,65.2
0.209544,605.3,46.8,1184.5,233.3,2341.9,135.0,604.9,1064.8,2372.3,0,65.1
0.211544,620.4,56.1,1187.0,199.9,2319.0,140.6,609.2,1069.9,2363.2,0,65.3
0.213544,626.3,59.8,1182.2,173.2,2304.6,136.2,611.8,1073,2357.7,0,65.6
0.215544,629.5,60.8,1180.1,147.8,2296.7,121.8,612.6,1074,2355.9,0,65.9
