time,f1,b1,f2,b2,f3,b3,f1p,f2p,f3p,f0,intensity
0.025186,982.2,244.6,1426.1,410.7,2550.6,475.8,1048.5,1359.6,2566.2,0,64.9
0.027186,986.9,270.2,1410.0,347.3,2558.6,409.8,1047.3,1359,2566.8,0,66.8
0.029186,1004.6,315.2,1394.2,315.6,2567.7,365.0,1045.3,1358,2567.8,0,68.5
0.031186,1039.1,387.4,1370.6,302.7,2576.1,337.8,1042.5,1356.6,2569.2,0,69.8
0.033186,1080.8,478.9,1337.5,290.3,2584.3,329.5,1038.9,1354.8,2570.9,0,70.8
0.035186,1108.0,585.9,1303.9,257.1,2597.1,338.1,1034.6,1352.7,2573,0,71.6
0.037186,1104.1,649.9,1285.9,231.9,2614.5,358.3,1029.6,1350.2,2575.4,90.3,72.2
0.039186,1088.6,650.7,1278.3,230.8,2628.8,375.2,1023.9,1347.4,2578.1,90.4,72.7
0.041186,1068.5,597.7,1282.6,251.2,2628.6,372.9,1017.7,1344.3,2581.1,90.4,73
0.043186,1039.7,518.9,1301.2,278.7,2617.9,353.3,1010.9,1341,2584.3,90.5,73.2
0.045186,1001.4,439.5,1328.7,293.1,2608.2,328.9,1003.6,1337.4,2587.7,90.6,73.5
0.047186,969.0,382.7,1347.5,284.9,2605.2,311.0,995.9,1333.6,2591.2,90.7,73.8
0.049186,945.6,342.6,1351.8,256.9,2605.9,297.6,987.8,1329.6,2594.9,90.8,74.2
0.051186,931.5,313.2,1345.6,219.4,2606.5,284.8,979.4,1325.5,2598.5,90.9,74.7
0.053186,921.0,282.4,1336.1,178.7,2606.0,268.9,970.8,1321.3,2602.2,90.9,75.1
0.055186,913.7,252.7,1327.6,146.2,2604.7,256.3,962.1,1317.1,2605.9,91.1,75.6
0.057186,908.6,226.5,1320.9,124.4,2602.2,255.6,953.2,1312.8,2609.5,91.2,75.9
0.059186,905.6,208.0,1316.4,114.7,2598.7,272.8,944.3,1308.5,2612.9,91.3,76.2
0.061186,902.9,191.4,1313.0,111.1,2595.3,303.2,935.5,1304.2,2616.2,91.4,76.4
0.063186,899.9,173.3,1310.0,106.6,2595.0,319.4,926.7,1300,2619.3,91.6,76.5
0.065186,897.0,152.8,1305.7,96.1,2597.9,302.2,918.2,1296,2622.1,91.7,76.5
0.067186,896.7,138.1,1300.8,83.7,2601.1,272.3,909.8,1292.1,2624.6,91.9,76.5
0.069186,901.7,133.8,1296.9,74.4,2602.3,259.0,901.8,1288.3,2626.8,92.1,76.4
0.071186,912.7,141.1,1296.2,73.0,2599.8,280.6,894.1,1284.7,2628.6,92.4,76.4
0.073186,927.3,151.0,1298.5,81.3,2590.7,346.6,886.7,1281.4,2630.1,92.7,76.4
0.075186,933.7,150.8,1299.6,96.8,2575.4,431.8,879.8,1278.3,2631.1,93,76.4
0.077186,930.3,151.8,1293.2,116.1,2577.8,473.6,873.4,1275.4,2631.6,93.4,76.6
0.079186,922.0,167.4,1277.7,124.6,2605.6,423.1,867.4,1272.9,2631.7,93.9,76.8
0.081186,907.9,193.0,1260.7,108.7,2612.6,345.0,861.9,1270.6,2631.3,94.4,77
0.083186,892.6,214.4,1252.1,84.7,2603.0,303.9,857,1268.6,2630.5,95,77.2
0.085186,878.0,233.9,1248.9,67.0,2592.7,306.0,852.6,1267,2629.1,95.8,77.4
0.087186,864.9,251.9,1249.4,58.6,2588.1,352.5,848.7,1265.6,2627.3,96.6,77.4
0.089186,853.8,250.2,1254.7,55.1,2593.5,417.7,845.4,1264.6,2624.9,97.6,77.4
0.091186,849.2,211.0,1263.6,52.2,2605.1,417.6,842.7,1263.8,2622.1,98.7,77.4
0.093186,850.7,165.0,1271.4,48.1,2610.0,359.3,840.4,1263.4,2618.9,99.9,77.4
0.095186,853.2,144.7,1274.9,45.9,2605.9,321.1,838.7,1263.2,2615.1,101.3,77.3
0.097186,851.5,146.2,1276.0,46.8,2592.7,318.5,837.4,1263.3,2611,102.9,77.1
0.099186,843.7,158.7,1275.9,49.7,2570.5,338.9,836.6,1263.7,2606.5,104.6,76.9
0.101186,833.5,173.7,1275.3,54.5,2550.8,380.1,836.3,1264.4,2601.6,106.5,76.6
0.103186,826.9,187.1,1273.5,61.9,2544.6,481.6,836.3,1265.2,2596.4,108.5,76.3
0.105186,827.4,197.7,1271.0,71.0,2561.7,675.2,836.7,1266.3,2590.9,110.8,76
0.107186,829.7,200.4,1268.4,78.4,2606.9,875.8,837.4,1267.5,2585.1,113.2,75.8
0.109186,827.0,189.5,1264.8,79.5,2635.9,813.9,838.4,1268.9,2579.1,115.7,75.7
0.111186,822.8,175.8,1261.3,78.0,2642.3,614.9,839.7,1270.5,2573,118.4,75.6
0.113186,819.6,167.9,1258.4,77.9,2642.4,469.7,841.1,1272.2,2566.7,121.3,75.5
0.115186,817.0,164.9,1254.5,80.8,2640.1,385.5,842.7,1273.9,2560.4,124.2,75.5
0.117186,815.7,164.8,1249.1,85.9,2634.3,357.2,844.5,1275.7,2554,127.2,75.5
0.119186,816.9,165.2,1245.2,90.9,2623.6,372.7,846.3,1277.6,2547.7,130.3,75.5
0.121186,821.2,163.9,1248.8,92.4,2614.2,417.1,848.1,1279.4,2541.4,133.5,75.7
0.123186,828.5,160.1,1260.6,89.5,2617.1,458.9,850,1281.3,2535.2,136.6,75.9
0.125186,836.0,155.4,1274.1,83.9,2630.0,474.6,851.9,1283.1,2529.2,139.7,76.2
0.127186,843.9,152.8,1286.5,78.5,2639.0,489.2,853.7,1284.9,2523.4,142.9,76.5
0.129186,851.3,154.2,1296.0,75.9,2630.9,515.8,855.5,1286.6,2517.8,145.9,76.8
0.131186,857.6,158.4,1303.1,75.7,2598.7,522.0,857.1,1288.2,2512.4,148.8,77.1
0.133186,861.2,161.9,1306.6,76.1,2561.7,474.4,858.7,1289.8,2507.4,151.7,77.4
0.135186,862.7,163.8,1307.6,75.8,2537.5,414.2,860.1,1291.2,2502.7,154.4,77.7
0.137186,862.1,163.5,1306.5,74.0,2522.9,389.7,861.5,1292.5,2498.4,156.9,77.9
0.139186,858.9,160.6,1303.7,70.5,2502.9,399.6,862.7,1293.6,2494.5,159.2,78
0.141186,854.0,157.2,1300.6,67.1,2471.0,424.9,863.7,1294.7,2491,161.4,78.1
0.143186,848.9,156.4,1297.7,65.8,2428.9,458.5,864.7,1295.5,2487.9,163.4,78.1
0.145186,846.7,161.6,1295.8,68.8,2398.2,500.2,865.5,1296.3,2485.3,165.1,78.1
0.147186,849.2,173.8,1295.2,76.9,2384.9,556.0,866.3,1296.9,2483.1,166.7,78
0.149186,855.2,188.3,1295.3,87.4,2371.4,607.2,866.9,1297.4,2481.4,168,78
0.151186,861.9,201.3,1294.5,96.7,2343.1,636.3,867.5,1297.7,2480.2,169.1,77.9
0.153186,865.9,205.8,1292.5,99.1,2326.8,628.0,868.1,1298,2479.4,170.1,77.9
0.155186,866.7,198.1,1290.2,92.3,2347.3,578.7,868.7,1298.1,2479,170.8,77.8
0.157186,866.1,185.8,1288.6,82.6,2387.5,517.8,869.3,1298.1,2479.1,171.3,77.7
0.159186,866.8,179.5,1288.2,75.8,2420.2,480.3,869.9,1298.1,2479.6,171.7,77.5
0.161186,869.2,184.9,1289.6,74.4,2433.5,490.1,870.6,1298,2480.5,171.9,77.3
0.163186,872.0,203.0,1294.0,78.1,2437.9,544.8,871.4,1297.9,2481.8,172,76.9
0.165186,872.8,221.9,1301.7,83.8,2446.7,574.9,872.4,1297.7,2483.4,171.9,76.6
0.167186,871.2,227.0,1311.1,89.5,2462.0,520.6,873.5,1297.5,2485.4,171.7,76.2
0.169186,873.8,218.6,1318.9,98.5,2476.2,437.3,874.8,1297.3,2487.7,171.4,75.8
0.171186,885.9,208.4,1319.8,110.6,2486.0,388.8,876.3,1297.1,2490.2,171,75.5
0.173186,905.6,203.1,1313.5,120.5,2495.0,370.1,878.1,1297,2493,170.5,75.3
0.175186,923.3,202.8,1306.2,122.1,2502.7,369.6,880.1,1296.9,2496,170,75.2
0.177186,934.3,205.0,1301.9,120.3,2507.2,379.7,882.4,1296.9,2499.2,169.4,75.2
0.179186,937.5,207.6,1300.8,123.2,2506.5,403.5,884.9,1297,2502.5,168.7,75.1
0.181186,938.4,207.3,1301.6,135.7,2504.0,452.8,887.8,1297.2,2505.9,168.1,75.1
0.183186,941.2,202.5,1303.4,155.0,2509.3,525.9,890.9,1297.5,2509.4,167.4,75
0.185186,946.1,194.5,1305.1,178.1,2537.0,617.6,894.3,1297.9,2512.8,166.7,74.9
0.187186,949.7,185.8,1306.2,195.6,2583.4,681.2,898,1298.5,2516.3,165.9,74.8
0.189186,948.7,178.4,1308.2,197.4,2620.8,680.1,902,1299.2,2519.7,165.2,74.7
0.191186,941.8,178.5,1312.2,180.7,2621.2,643.3,906.2,1300,2523.1,164.5,74.4
0.193186,930.0,190.4,1316.3,154.5,2597.4,617.9,910.7,1301,2526.3,163.8,74.2
0.195186,918.4,209.8,1316.8,133.2,2577.6,615.5,915.4,1302.2,2529.5,163.1,73.9
0.197186,910.4,225.1,1312.1,121.6,2578.3,640.9,920.2,1303.5,2532.4,162.4,73.6
0.199186,908.0,226.7,1304.0,121.8,2601.4,701.3,925.2,1304.9,2535.2,161.7,73.2
0.201186,910.8,222.3,1295.5,133.6,2638.2,787.5,930.2,1306.5,2537.7,161,72.8
0.203186,916.0,226.0,1290.2,156.0,2654.8,862.6,935.3,1308.3,2540,160.4,72.3
0.205186,921.4,248.6,1285.4,193.3,2630.7,933.8,940.4,1310.1,2542.1,159.8,71.7
0.207186,925.1,288.0,1277.7,237.8,2575.7,1016.8,945.5,1312.1,2543.9,159.2,71.1
0.209186,927.1,331.9,1271.0,279.0,2514.1,1107.8,950.5,1314.1,2545.5,158.6,70.5
0.211186,928.9,356.3,1278.2,308.3,2498.1,1176.1,955.3,1316.3,2546.7,158,69.9
0.213186,922.8,361.9,1292.8,314.6,2500.8,1190.6,959.9,1318.5,2547.7,157.5,69.4
0.215186,903.2,362.4,1292.0,285.4,2483.3,1034.7,964.3,1320.8,2548.4,156.9,69
0.217186,882.7,358.6,1282.7,237.5,2492.4,729.3,968.3,1323.1,2548.7,156.4,68.6
0.219186,879.9,357.8,1279.3,206.5,2520.4,490.2,972,1325.4,2548.8,155.9,68.3
0.221186,896.5,359.2,1286.2,198.0,2544.1,333.1,975.2,1327.8,2548.6,155.4,67.8
0.223186,922.4,355.2,1305.7,207.4,2554.8,244.8,978,1330.1,2548.2,155,67.3
0.225186,949.2,349.0,1342.3,228.2,2554.9,197.1,980.3,1332.4,2547.4,154.5,66.8
0.227186,966.6,345.3,1384.6,248.3,2546.3,184.4,982,1334.6,2546.4,154.1,66.5
0.229186,974.3,335.4,1415.8,265.7,2528.8,197.8,983.1,1336.8,2545.1,153.6,66.3
0.231186,974.5,325.6,1426.5,282.0,2501.1,229.9,983.6,1338.9,2543.6,153.2,66.3
0.233186,971.7,332.1,1414.7,291.0,2478.5,254.5,983.4,1340.9,2541.9,152.8,66.4
0.235186,973.0,349.2,1388.4,287.7,2483.7,246.0,982.6,1342.7,2540,152.4,66.6
0.237186,977.1,360.5,1361.8,274.8,2503.6,214.1,981.1,1344.5,2537.9,152,66.8
0.239186,977.2,360.4,1342.1,260.4,2515.0,189.3,978.9,1346.1,2535.6,151.6,66.9
0.241186,972.2,355.4,1332.3,253.2,2513.7,184.3,976,1347.5,2533.1,151.3,66.9
0.243186,965.5,353.9,1328.9,253.6,2502.1,193.2,972.4,1348.8,2530.6,150.9,66.7
0.245186,963.0,356.1,1332.0,255.6,2487.3,204.0,968.1,1349.9,2527.9,150.6,66.5
0.247186,967.4,356.5,1338.0,252.5,2481.4,211.2,963.2,1350.8,2525.1,150.3,66.2
0.249186,976.8,351.8,1340.0,249.5,2493.2,221.2,957.6,1351.6,2522.3,150,66
0.251186,984.5,342.3,1335.7,249.1,2517.7,242.7,951.5,1352.2,2519.4,149.7,65.8
0.253186,987.1,328.0,1331.6,248.3,2538.4,264.4,944.7,1352.7,2516.5,149.5,65.6
0.255186,988.6,304.5,1336.5,247.1,2546.8,274.6,937.5,1352.9,2513.5,149.2,65.5
0.257186,985.8,277.6,1347.7,241.8,2545.2,288.5,929.9,1353,2510.6,149,65.4
0.259186,980.2,253.6,1358.7,232.4,2541.6,314.1,921.8,1353,2507.7,148.8,65.2
0.261186,975.8,241.6,1363.4,223.7,2541.0,334.1,913.4,1352.8,2504.8,148.7,65.1
0.263186,970.8,245.8,1360.3,218.3,2542.1,352.5,904.7,1352.5,2502,148.5,64.8
0.265186,962.7,265.8,1352.6,214.8,2539.8,389.8,895.9,1352.1,2499.2,148.4,64.5
0.267186,952.1,290.7,1347.3,208.7,2527.0,449.0,886.9,1351.5,2496.5,148.3,64.1
0.269186,943.0,309.1,1349.1,205.5,2505.3,496.1,877.9,1350.9,2494,148.2,63.7
0.271186,934.8,330.3,1357.4,210.8,2484.9,510.5,868.9,1350.2,2491.5,148.1,63.2
0.273186,924.5,370.3,1367.8,218.7,2479.4,500.3,860.1,1349.5,2489.1,148.1,62.8
0.275186,909.9,447.9,1372.3,211.5,2483.8,489.9,851.4,1348.7,2486.9,148,62.4
0.277186,897.5,549.1,1367.7,184.2,2484.1,504.4,843,1347.8,2484.8,0,62
0.279186,886.9,644.5,1360.4,151.6,2470.7,566.8,835,1347,2482.8,0,61.6
0.281186,864.6,680.4,1354.4,127.2,2438.3,671.8,827.4,1346.2,2481,0,61
0.283186,824.4,635.1,1348.7,108.5,2394.4,757.6,820.2,1345.4,2479.3,0,60.3
0.285186,780.7,546.2,1340.2,94.3,2398.2,689.6,813.7,1344.6,2477.8,0,59.5
0.287186,723.7,471.6,1322.0,81.5,2441.7,492.7,807.7,1343.9,2476.5,0,58.6
0.289186,673.9,449.7,1303.4,72.3,2470.9,368.8,802.5,1343.3,2475.3,0,57.8
0.291186,669.3,445.4,1303.9,73.0,2489.5,370.9,797.9,1342.7,2474.3,0,57.2
0.293186,707.5,402.6,1321.2,81.1,2509.4,446.2,794.1,1342.2,2473.5,0,56.9
0.295186,742.0,323.5,1340.5,80.4,2519.8,514.8,791.2,1341.8,2472.9,0,56.6
0.297186,759.3,249.2,1353.0,70.0,2513.4,548.8,789,1341.6,2472.4,0,56.3
0.299186,762.7,204.1,1357.4,59.7,2505.1,549.8,787.7,1341.4,2472.2,0,55.9
0.301186,758.2,185.6,1357.3,54.8,2515.6,543.2,787.3,1341.3,2472.1,0,55.3
