time,f1,b1,f2,b2,f3,b3,f1p,f2p,f3p,f0,intensity
0.025746,545.8,132.0,1886.9,164.1,2889.6,1788.2,562.2,1793.1,2912.3,155,70.5
0.027746,554.6,121.1,1858.1,186.3,2928.3,1464.7,563.7,1790.2,2909.7,154.6,70.4
0.029746,563.3,109.6,1816.3,215.2,2922.6,1156.0,566.2,1785.4,2905.2,154.2,70.3
0.031746,571.9,99.3,1765.9,235.8,2903.7,954.0,569.5,1779,2898.9,153.7,70.2
0.033746,579.8,91.2,1724.3,238.0,2889.0,853.5,573.8,1770.9,2890.6,153.2,70
0.035746,587.2,86.1,1706.3,233.7,2876.6,847.8,578.9,1761.5,2880.3,152.6,69.9
0.037746,594.1,84.7,1703.4,236.1,2860.0,911.6,584.7,1750.9,2868,151.9,69.8
0.039746,600.4,85.8,1703.7,242.5,2839.3,1003.4,591.2,1739.4,2853.5,151.1,69.6
0.041746,605.9,86.5,1703.1,242.4,2819.6,1071.5,598.3,1727.3,2836.9,150.3,69.4
0.043746,611.1,86.8,1700.0,234.8,2799.3,1092.5,605.8,1714.7,2818.1,149.3,69.2
0.045746,616.4,89.4,1694.1,226.7,2779.0,1070.8,613.6,1702,2797.3,148.3,68.9
0.047746,621.6,93.8,1687.3,219.4,2766.7,1013.0,621.6,1689.4,2774.5,147.2,68.5
0.049746,625.4,96.7,1679.2,210.2,2757.2,941.6,629.7,1677.1,2749.8,145.9,68.1
0.051746,628.2,99.7,1667.3,198.1,2744.4,898.2,637.7,1665.3,2723.6,144.5,67.6
0.053746,632.1,107.5,1654.1,184.5,2732.0,908.9,645.5,1654.1,2696,143.1,67
0.055746,639.0,120.8,1643.8,175.7,2710.7,953.9,652.9,1643.7,2667.5,141.4,66.4
0.057746,648.4,138.8,1634.6,179.2,2668.9,975.4,659.9,1634.2,2638.2,139.7,65.7
0.059746,659.5,164.2,1623.2,195.2,2621.1,950.4,666.3,1625.6,2608.7,137.8,65.1
0.061746,672.6,199.8,1615.1,210.0,2592.6,945.5,672,1617.9,2579.3,135.8,64.6
0.063746,689.0,248.4,1617.3,208.9,2573.7,1012.5,677,1611.1,2550.5,133.7,64.2
0.065746,706.6,310.1,1623.0,197.3,2535.1,1072.0,681.2,1605.1,2522.6,131.5,64
0.067746,716.6,363.3,1625.0,185.3,2485.6,1045.0,684.5,1599.9,2495.9,129.1,64
0.069746,709.6,374.5,1621.9,172.1,2432.0,963.0,687,1595.3,2470.9,126.6,64.2
0.071746,691.4,343.6,1614.2,157.2,2382.2,876.8,688.7,1591.3,2447.8,124.1,64.3
0.073746,675.7,299.5,1604.0,142.5,2341.9,815.6,689.6,1587.6,2426.8,121.4,64.4
0.075746,668.8,266.6,1595.2,131.2,2324.8,781.8,689.8,1584.3,2408,118.7,64.5
0.077746,668.6,253.8,1589.0,128.7,2344.6,763.6,689.4,1581.1,2391.4,116,64.5
0.079746,671.3,257.0,1581.4,140.7,2377.4,730.0,688.5,1578,2377.2,113.2,64.5
0.081746,674.8,266.2,1570.6,163.8,2394.5,678.6,687.2,1574.8,2365.1,110.4,64.5
0.083746,678.1,271.1,1559.9,182.4,2402.5,637.2,685.6,1571.6,2355.1,107.6,64.5
0.085746,680.4,268.2,1550.2,187.3,2413.3,615.7,683.9,1568.3,2347,104.9,64.4
0.087746,681.8,259.9,1541.0,181.2,2425.7,601.9,682.2,1564.8,2340.4,102.2,64.4
0.089746,682.3,247.7,1535.4,170.3,2419.4,580.2,680.5,1561.3,2335.2,99.6,64.4
0.091746,682.7,235.6,1534.2,161.1,2379.4,540.3,679.1,1557.6,2331.1,97,64.3
0.093746,685.6,230.3,1536.5,155.2,2332.0,486.1,677.9,1554,2327.9,94.6,64.2
0.095746,691.2,230.8,1540.9,149.4,2304.4,449.4,677,1550.5,2325.3,92.3,64.1
0.097746,694.4,225.5,1543.6,140.8,2291.0,435.1,676.4,1547.2,2323.1,90.1,63.9
0.099746,691.5,208.2,1541.7,130.4,2279.3,430.2,676.1,1544.2,2321.3,88,63.7
0.101746,685.9,189.8,1537.7,122.7,2274.4,433.6,676.1,1541.7,2319.7,86.1,63.4
0.103746,681.5,176.6,1535.1,117.5,2280.5,433.6,676.2,1539.8,2318.4,84.3,63.1
0.105746,677.8,167.2,1535.0,113.7,2294.5,413.7,676.3,1538.6,2317.5,82.7,62.8
0.107746,673.7,163.6,1537.1,116.8,2311.1,385.2,676.3,1538.2,2317.1,81.3,62.4
0.109746,670.3,167.2,1542.1,132.1,2322.4,372.6,676.1,1538.8,2317.4,79.9,62.1
0.111746,668.5,173.1,1551.2,157.4,2325.4,387.7,675.5,1540.4,2318.6,78.8,61.8
0.113746,666.7,173.8,1565.7,188.8,2322.4,429.7,674.3,1543,2321.1,77.7,61.6
0.115746,663.8,165.3,1584.7,221.3,2315.8,491.2,672.3,1546.8,2325.2,76.8,61.5
0.117746,660.5,151.3,1600.7,240.1,2310.0,557.1,669.4,1551.7,2331.1,76,61.3
0.119746,657.3,142.0,1605.3,242.4,2311.5,634.7,665.5,1557.7,2339.1,75.3,61.2
0.121746,653.4,146.0,1599.3,244.5,2328.8,782.1,660.5,1564.8,2349.5,74.8,61
0.123746,647.9,164.0,1584.8,251.1,2382.1,1046.0,654.3,1572.8,2362.3,74.3,60.9
0.125746,639.1,182.5,1564.9,260.3,2460.6,1242.8,646.9,1581.7,2377.6,73.9,60.9
0.127746,629.6,190.4,1559.5,280.8,2465.0,1189.4,638.3,1591.3,2395.6,73.5,60.9
0.129746,623.0,184.5,1570.2,298.5,2424.8,1095.1,628.6,1601.6,2415.9,73.2,61
0.131746,618.2,170.2,1583.2,299.6,2410.6,1072.1,617.9,1612.2,2438.4,73,61.1
0.133746,611.9,156.4,1591.7,286.0,2437.8,1121.7,606.4,1623.2,2462.7,72.8,61.2
0.135746,602.2,150.6,1596.5,263.6,2510.8,1254.7,594.3,1634.1,2488.5,72.7,61.2
0.137746,591.4,156.9,1606.2,239.3,2610.8,1468.9,581.9,1645,2515.2,72.6,61.2
0.139746,582.3,174.5,1631.9,225.9,2620.6,1622.7,569.4,1655.5,2542.1,72.5,61.1
0.141746,573.3,191.8,1663.7,220.7,2514.3,1544.6,557.1,1665.5,2568.7,72.5,61.1
0.143746,564.9,193.3,1683.9,209.1,2451.4,1380.6,545.3,1674.8,2594.3,72.4,61
0.145746,559.4,178.6,1692.2,189.5,2468.7,1268.0,534.4,1683.3,2618.2,72.4,61
0.147746,553.2,157.6,1695.1,167.4,2551.2,1181.3,524.5,1690.7,2639.7,72.4,61
0.149746,539.9,139.8,1697.6,148.5,2660.5,1041.6,516.1,1697,2658.2,72.4,60.9
0.151746,518.8,130.0,1704.6,134.9,2732.9,872.1,509.3,1702,2673.2,72.4,60.8
0.153746,493.3,124.9,1716.5,126.6,2754.1,773.4,504.2,1705.6,2684.3,72.4,60.7
0.155746,464.3,118.7,1730.3,125.4,2745.1,766.1,501.2,1707.9,2691.1,72.4,60.6
0.157746,433.9,111.0,1746.0,135.0,2727.5,828.3,500.1,1708.6,2693.3,72.4,60.4
