time,f1,b1,f2,b2,f3,b3,f1p,f2p,f3p,f0,intensity
0.025755,339.8,265.5,2313.8,484.5,2976.0,527.4,366.2,2261.2,2929,187.4,69.4
0.027755,351.2,160.8,2326.0,376.1,2943.3,448.0,366.5,2260.3,2927.1,187,70.4
0.029755,363.7,105.3,2328.8,326.4,2919.8,365.8,367,2258.7,2923.9,186.5,71.3
0.031755,374.4,76.2,2323.5,307.8,2907.8,310.8,367.6,2256.5,2919.6,186,72.2
0.033755,381.0,59.8,2307.9,309.2,2899.5,277.8,368.4,2253.7,2914.2,185.5,72.9
0.035755,383.5,51.1,2281.1,324.4,2889.5,255.7,369.3,2250.3,2907.7,185,73.6
0.037755,383.4,46.5,2246.5,336.2,2875.3,229.9,370.4,2246.5,2900.3,184.5,74.2
0.039755,381.5,45.1,2222.3,322.8,2860.5,195.1,371.7,2242.1,2892,183.9,74.8
0.041755,379.1,46.1,2210.1,297.3,2848.3,156.9,373,2237.4,2883,183.3,75.2
0.043755,377.3,48.3,2197.0,284.8,2841.3,125.9,374.5,2232.2,2873.4,182.8,75.6
0.045755,376.4,51.8,2175.3,287.9,2838.1,103.1,376,2226.7,2863.3,182.2,75.8
0.047755,376.7,56.3,2154.2,289.3,2836.7,90.6,377.6,2220.9,2852.9,181.6,76
0.049755,377.8,62.2,2150.9,273.3,2835.0,87.3,379.3,2214.9,2842.3,181,76.1
0.051755,378.7,68.4,2160.2,254.1,2832.5,91.3,381,2208.8,2831.6,180.5,76.2
0.053755,378.7,71.9,2165.5,250.8,2830.3,99.3,382.8,2202.5,2821,179.9,76.2
0.055755,378.0,73.3,2160.6,260.3,2829.1,105.8,384.6,2196.2,2810.5,179.4,76.2
0.057755,377.6,74.6,2148.7,273.3,2828.9,108.3,386.3,2189.8,2800.4,178.9,76.1
0.059755,378.3,77.1,2135.7,286.5,2828.9,110.9,388,2183.5,2790.7,178.4,76
0.061755,380.7,81.1,2129.3,298.1,2827.4,119.1,389.7,2177.3,2781.5,177.9,75.8
0.063755,384.9,87.4,2133.2,304.2,2822.7,137.5,391.3,2171.3,2772.9,177.4,75.6
0.065755,390.1,95.3,2146.4,299.3,2813.2,167.1,392.9,2165.4,2765,177,75.4
0.067755,396.5,104.7,2164.1,285.4,2797.5,204.7,394.4,2159.8,2757.7,176.6,75.1
0.069755,402.4,114.0,2176.1,274.8,2779.2,234.2,395.8,2154.3,2751.2,176.2,74.9
0.071755,406.2,120.4,2176.2,277.3,2761.8,249.9,397.2,2149.2,2745.5,175.9,74.8
0.073755,407.9,123.5,2163.4,293.4,2743.3,253.9,398.4,2144.4,2740.5,175.5,74.7
0.075755,408.2,124.5,2145.2,309.3,2728.6,244.3,399.5,2139.8,2736.2,175.2,74.7
0.077755,407.9,125.4,2136.7,311.6,2721.5,229.3,400.6,2135.6,2732.6,174.9,74.7
0.079755,407.5,127.6,2142.7,301.4,2719.5,217.6,401.5,2131.7,2729.7,174.7,74.7
0.081755,406.9,129.2,2154.2,284.4,2718.7,209.3,402.4,2128.1,2727.4,174.5,74.7
0.083755,405.8,127.1,2160.8,268.4,2716.5,206.4,403.1,2124.8,2725.5,174.2,74.7
0.085755,404.4,121.9,2160.4,258.6,2710.2,212.8,403.8,2121.8,2724.2,174.1,74.7
0.087755,403.1,116.6,2156.9,256.4,2699.6,228.0,404.4,2119.2,2723.1,173.9,74.7
0.089755,402.3,112.4,2153.8,258.4,2689.3,239.9,404.9,2116.7,2722.3,173.7,74.6
0.091755,402.0,110.1,2151.3,261.6,2686.7,236.3,405.4,2114.6,2721.7,173.6,74.6
0.093755,401.8,108.4,2148.2,267.2,2687.9,229.2,405.8,2112.7,2721.1,173.5,74.6
0.095755,401.4,106.3,2143.1,276.8,2687.9,228.7,406.1,2111,2720.5,173.4,74.5
0.097755,401.0,104.9,2134.5,286.9,2687.4,235.9,406.4,2109.5,2719.7,173.3,74.5
0.099755,401.0,104.8,2122.2,286.0,2691.5,239.7,406.7,2108.2,2718.7,173.2,74.5
0.101755,401.6,106.0,2110.3,269.5,2700.6,226.6,407,2107,2717.4,173.1,74.5
0.103755,402.7,108.4,2102.4,251.7,2707.9,203.9,407.3,2105.9,2715.7,173.1,74.4
0.105755,404.4,110.0,2100.8,248.4,2710.6,190.5,407.6,2105,2713.6,173,74.3
0.107755,406.6,109.5,2103.5,264.9,2712.6,190.5,408,2104.2,2711,173,74.3
0.109755,408.8,108.2,2105.5,298.5,2715.8,197.0,408.3,2103.5,2708,172.9,74.2
0.111755,410.4,106.1,2099.3,342.9,2718.1,203.2,408.7,2102.8,2704.4,172.9,74.2
0.113755,410.6,103.6,2081.5,377.3,2716.4,208.2,409.2,2102.2,2700.4,172.9,74.2
0.115755,410.1,102.0,2062.0,391.8,2711.1,215.7,409.7,2101.7,2695.8,172.8,74.1
0.117755,409.8,101.2,2049.3,394.5,2703.0,226.1,410.2,2101.2,2690.9,172.8,74.1
0.119755,410.2,100.7,2047.6,389.4,2695.5,233.1,410.9,2100.8,2685.6,172.7,74.1
0.121755,411.4,100.5,2056.5,376.1,2692.3,233.7,411.6,2100.5,2679.9,172.7,74.1
0.123755,413.1,100.3,2070.9,360.3,2691.4,230.4,412.4,2100.3,2674.1,172.7,74.1
0.125755,414.9,100.0,2086.3,348.8,2688.8,227.2,413.2,2100.1,2668.1,172.6,74.1
0.127755,416.8,99.5,2097.6,343.9,2683.8,226.7,414.1,2100.1,2662.2,172.6,74.1
0.129755,418.8,98.3,2101.9,342.2,2676.5,230.2,415.1,2100.2,2656.3,172.5,74.1
0.131755,420.7,96.9,2100.3,340.4,2666.9,237.4,416.2,2100.5,2650.6,172.5,74.1
0.133755,422.2,95.9,2097.4,335.4,2655.2,246.6,417.3,2100.9,2645.4,172.5,74.1
0.135755,423.0,95.2,2096.4,326.6,2644.8,252.2,418.5,2101.4,2640.5,172.4,74.1
0.137755,423.1,94.5,2096.7,315.9,2636.9,252.6,419.7,2102.2,2636.3,172.3,74
0.139755,423.1,93.7,2099.5,307.3,2632.8,253.9,421,2103.2,2632.9,172.3,74
0.141755,423.4,91.8,2107.4,305.3,2632.1,267.8,422.3,2104.4,2630.2,172.2,73.9
0.143755,423.7,89.2,2119.3,315.5,2631.0,305.0,423.7,2105.8,2628.5,172.1,73.9
0.145755,424.2,87.4,2130.7,332.5,2627.1,357.0,425.1,2107.5,2627.8,172.1,73.9
0.147755,425.1,87.3,2136.4,343.8,2628.5,393.2,426.5,2109.4,2628.2,172,73.9
0.149755,426.2,88.7,2132.9,341.4,2640.8,384.9,428,2111.6,2629.8,171.9,73.9
0.151755,427.4,90.0,2126.3,328.1,2652.9,353.7,429.4,2114,2632.5,171.8,73.9
0.153755,428.4,90.0,2120.8,309.7,2657.0,323.8,430.9,2116.6,2636.5,171.7,74
0.155755,429.8,89.4,2117.2,289.2,2654.6,297.9,432.4,2119.5,2641.7,171.6,74
0.157755,431.9,88.3,2117.5,271.6,2650.9,282.8,433.8,2122.5,2648.1,171.5,74.1
0.159755,434.2,86.6,2121.8,261.2,2649.2,287.5,435.3,2125.8,2655.7,171.4,74
0.161755,436.3,84.6,2128.4,260.3,2648.2,313.8,436.7,2129.2,2664.4,171.3,74
0.163755,438.1,82.2,2136.8,266.2,2646.4,353.1,438.1,2132.8,2674,171.2,74
0.165755,439.1,79.6,2146.6,278.2,2646.1,381.9,439.5,2136.4,2684.6,171,74
0.167755,439.7,77.9,2156.5,296.7,2648.7,389.4,440.9,2140.1,2696,170.9,73.9
0.169755,440.5,77.3,2165.3,319.3,2653.1,386.9,442.3,2143.8,2708,170.7,73.9
0.171755,441.7,78.1,2169.3,338.7,2657.5,395.3,443.7,2147.5,2720.5,170.6,73.9
0.173755,442.9,80.0,2170.0,351.7,2664.4,427.5,445.1,2151.1,2733.3,170.4,73.8
0.175755,444.0,81.3,2171.2,351.0,2682.6,473.0,446.4,2154.5,2746.3,170.3,73.8
0.177755,445.3,81.3,2172.3,335.6,2721.3,514.1,447.7,2157.8,2759.3,170.1,73.7
0.179755,446.9,79.6,2170.5,316.0,2770.9,537.3,449.1,2160.9,2772,169.9,73.7
0.181755,448.9,76.6,2166.5,301.3,2812.8,555.4,450.4,2163.7,2784.3,169.8,73.7
0.183755,451.0,73.5,2162.3,293.8,2837.4,572.9,451.8,2166.1,2796.1,169.6,73.6
0.185755,453.4,70.8,2157.2,290.6,2852.8,563.2,453.1,2168.2,2807.1,169.4,73.6
0.187755,455.8,67.8,2151.2,292.7,2865.0,513.4,454.5,2169.9,2817.2,169.2,73.7
0.189755,457.7,64.5,2143.8,302.9,2875.0,448.5,455.8,2171.2,2826.2,169,73.7
0.191755,459.5,60.6,2134.8,316.5,2884.2,387.5,457.2,2172,2833.9,168.8,73.7
0.193755,461.2,56.5,2132.4,307.0,2893.9,347.4,458.6,2172.3,2840.3,168.6,73.8
0.195755,463.3,52.9,2141.2,261.3,2904.7,326.9,460,2172.1,2845.3,168.4,73.8
0.197755,465.5,49.7,2151.5,214.3,2912.7,316.0,461.5,2171.4,2848.8,168.2,73.8
0.199755,468.0,46.5,2159.0,188.1,2916.3,306.4,463,2170.1,2850.6,168,73.8
0.201755,470.2,43.7,2164.4,187.6,2913.2,297.1,464.4,2168.4,2850.9,167.8,73.7
0.203755,471.7,41.3,2168.5,208.3,2896.2,290.5,466,2166.1,2849.5,167.6,73.7
0.205755,472.1,39.2,2168.9,241.9,2859.3,282.4,467.5,2163.4,2846.6,167.5,73.6
0.207755,471.9,37.0,2160.6,280.2,2804.5,254.2,469,2160.2,2842.1,167.3,73.5
0.209755,471.5,35.5,2145.4,299.8,2759.1,207.0,470.6,2156.5,2836.1,167.1,73.4
0.211755,471.1,35.2,2138.1,290.6,2738.1,171.3,472.1,2152.5,2828.7,166.9,73.3
0.213755,470.7,35.9,2143.8,261.5,2734.0,153.5,473.7,2148.1,2820.1,166.7,73.1
0.215755,470.5,37.0,2155.6,227.4,2739.8,148.1,475.2,2143.5,2810.3,166.5,73
0.217755,471.0,37.5,2166.3,203.2,2748.5,146.8,476.7,2138.6,2799.6,166.4,72.8
0.219755,472.1,36.8,2173.6,197.7,2755.2,146.4,478.2,2133.5,2788.1,166.2,72.6
0.221755,473.5,35.4,2175.8,210.3,2757.9,146.3,479.7,2128.3,2776,166.1,72.4
0.223755,475.1,34.2,2164.8,231.3,2754.3,143.7,481.1,2123.1,2763.5,165.9,72.1
0.225755,477.4,33.8,2137.1,238.5,2745.7,135.0,482.4,2117.9,2750.9,165.8,71.8
0.227755,480.3,34.1,2109.2,222.1,2736.4,122.9,483.7,2112.9,2738.2,165.7,71.4
0.229755,483.3,34.7,2094.9,194.8,2728.6,111.4,485,2107.9,2725.8,165.5,71.1
0.231755,485.7,35.4,2094.2,171.7,2723.7,103.9,486.1,2103.3,2713.9,165.4,70.7
0.233755,487.3,36.1,2096.1,159.1,2720.1,104.0,487.2,2098.9,2702.6,165.3,70.4
0.235755,489.1,36.4,2093.5,158.1,2714.9,116.3,488.1,2094.9,2692.1,165.2,69.9
0.237755,491.6,37.8,2085.5,163.2,2706.2,138.0,488.9,2091.3,2682.6,165.1,69.4
0.239755,494.4,44.7,2077.8,163.4,2694.4,152.7,489.7,2088.1,2674.3,165.1,68.7
0.241755,495.4,60.6,2075.4,157.4,2684.5,153.4,490.3,2085.5,2667.3,165,67.8
0.243755,492.8,90.0,2078.3,147.6,2677.3,145.7,490.7,2083.4,2661.8,164.9,66.9
0.245755,486.9,125.8,2081.7,137.9,2671.1,136.2,491.1,2081.9,2657.7,0,65.8
0.247755,488.1,131.8,2077.5,131.0,2662.3,129.9,491.3,2081,2655.3,0,64.7
0.249755,501.4,99.5,2062.3,128.2,2649.0,133.4,491.4,2080.7,2654.5,0,63.7
