time,f1,b1,f2,b2,f3,b3,f1p,f2p,f3p,f0,intensity
0.025658,698.3,95.2,1218.6,150.3,2561.2,199.6,693.7,1164.6,2524.7,171,68.1
0.027658,696.9,83.8,1210.7,174.8,2555.3,213.3,693.7,1165.7,2527.6,171,68.2
0.029658,696.1,73.7,1203.2,197.2,2546.5,226.2,693.7,1167.5,2532.3,171.1,68.4
0.031658,695.7,66.1,1195.0,218.9,2536.1,233.1,693.7,1169.9,2538.6,171.1,68.6
0.033658,695.4,60.9,1179.9,238.5,2526.3,234.7,693.7,1172.9,2546.5,171.2,68.8
0.035658,694.8,57.6,1158.9,246.0,2520.8,235.9,693.5,1176.3,2555.6,171.2,68.9
0.037658,693.4,54.4,1141.8,237.2,2524.3,248.0,693.4,1180,2565.8,171.3,69
0.039658,691.8,51.1,1138.7,218.7,2541.2,276.4,693.1,1183.9,2576.7,171.3,69
0.041658,690.5,48.0,1145.4,198.9,2571.7,311.8,692.6,1187.9,2588,171.3,68.8
0.043658,689.3,45.9,1154.5,186.9,2606.0,329.1,692,1191.8,2599.4,171.4,68.6
0.045658,688.0,45.1,1163.6,188.9,2631.0,311.9,691.2,1195.4,2610.7,171.4,68.3
0.047658,686.9,46.0,1172.9,204.2,2642.2,276.6,690.2,1198.7,2621.4,171.5,67.9
0.049658,685.9,48.4,1183.5,226.5,2646.6,243.8,688.9,1201.6,2631.5,171.5,67.4
0.051658,684.9,52.3,1194.3,251.8,2648.9,221.9,687.4,1203.9,2640.5,171.5,66.9
0.053658,684.1,58.2,1204.1,282.8,2651.9,212.3,685.7,1205.6,2648.3,171.6,66.5
0.055658,683.1,66.3,1212.9,324.2,2658.0,214.9,683.7,1206.7,2654.8,171.6,66.1
0.057658,681.1,72.6,1220.7,366.9,2667.2,224.8,681.4,1207.2,2659.7,171.6,65.9
0.059658,677.1,72.4,1229.1,402.1,2675.5,231.4,678.9,1206.9,2663.2,171.7,65.8
0.061658,672.8,65.9,1236.6,424.5,2676.7,227.1,676.2,1206.1,2665,171.7,65.9
0.063658,669.6,58.0,1238.2,435.9,2669.3,214.3,673.3,1204.7,2665.4,171.8,66
0.065658,667.7,54.6,1229.3,436.3,2659.0,202.2,670.3,1202.9,2664.3,171.8,66
0.067658,665.8,56.8,1211.6,428.2,2650.4,194.5,667.1,1200.6,2661.9,171.9,65.9
0.069658,663.9,64.5,1193.1,415.6,2645.0,189.6,663.9,1198.1,2658.4,171.9,65.7
0.071658,662.4,77.7,1180.5,402.6,2642.2,183.4,660.7,1195.3,2654,172,65.5
0.073658,661.3,92.9,1176.7,391.9,2641.4,174.0,657.4,1192.5,2648.8,172.1,65.2
0.075658,659.0,104.5,1179.6,382.1,2640.3,162.3,654.3,1189.8,2643.2,172.2,64.9
0.077658,655.6,107.2,1186.4,374.0,2637.5,150.2,651.2,1187.2,2637.3,172.3,64.7
0.079658,653.0,103.4,1192.7,369.1,2632.2,138.7,648.3,1184.8,2631.5,172.4,64.5
0.081658,651.5,99.1,1195.8,365.2,2625.0,126.4,645.6,1182.8,2625.9,172.6,64.5
0.083658,649.5,97.2,1195.2,359.1,2618.7,113.9,643.1,1181,2620.9,172.7,64.5
0.085658,645.4,96.6,1191.2,349.3,2614.4,101.2,640.9,1179.7,2616.5,172.9,64.5
0.087658,640.3,96.2,1183.9,336.4,2611.8,89.6,639,1178.7,2612.9,173.1,64.5
0.089658,636.4,95.5,1174.1,324.0,2610.9,80.5,637.3,1178.1,2610.3,173.3,64.5
0.091658,635.2,94.8,1165.2,318.5,2611.5,75.5,635.9,1177.8,2608.8,173.5,64.5
0.093658,635.5,94.7,1159.5,321.7,2613.2,74.7,634.9,1177.7,2608.4,173.7,64.5
0.095658,635.0,94.8,1159.2,331.8,2615.3,77.8,634,1177.7,2609,174,64.6
0.097658,633.2,94.9,1165.0,346.2,2617.1,85.0,633.5,1177.8,2610.7,174.2,64.6
0.099658,630.9,96.0,1174.1,359.4,2618.1,95.8,633.1,1177.7,2613.4,174.5,64.6
0.101658,628.5,98.4,1181.1,365.7,2619.2,108.7,632.9,1177.4,2616.9,174.8,64.5
0.103658,626.0,100.5,1181.3,360.8,2620.9,120.7,632.9,1176.8,2621,175.1,64.5
0.105658,624.1,101.0,1175.2,347.2,2622.8,131.7,633,1175.7,2625.8,175.4,64.5
0.107658,624.3,99.4,1168.9,334.4,2624.2,143.9,633.1,1173.9,2630.8,175.7,64.6
0.109658,626.5,95.3,1167.1,327.6,2627.0,162.8,633.3,1171.5,2636,176.1,64.8
0.111658,628.8,89.8,1170.9,329.4,2634.8,193.7,633.4,1168.3,2641.1,176.4,65
0.113658,630.3,85.4,1176.6,342.4,2648.1,230.9,633.4,1164.3,2645.9,176.8,65.3
0.115658,631.7,84.0,1177.4,367.0,2660.0,250.9,633.3,1159.5,2650.2,177.1,65.5
0.117658,633.8,86.5,1169.1,392.7,2663.9,245.2,633,1153.9,2654,177.5,65.8
0.119658,636.8,91.7,1154.4,410.0,2665.7,236.9,632.5,1147.5,2656.9,177.8,66.1
0.121658,639.8,99.1,1137.8,414.7,2669.9,240.0,631.8,1140.5,2658.9,178.2,66.4
0.123658,640.8,108.0,1121.2,403.4,2673.6,248.2,630.9,1133,2660,178.5,66.6
0.125658,638.1,114.3,1106.6,374.0,2665.8,235.8,629.7,1125.1,2660,178.9,66.8
0.127658,632.8,115.2,1094.7,328.7,2647.5,198.8,628.2,1117,2659,179.2,67.1
0.129658,627.9,111.9,1087.0,277.4,2632.6,165.6,626.5,1108.9,2656.9,179.6,67.3
0.131658,624.8,109.1,1083.6,230.2,2626.5,152.9,624.6,1101.1,2653.9,179.9,67.6
0.133658,622.9,110.3,1084.9,197.0,2628.2,161.5,622.4,1093.8,2650.1,180.2,67.8
0.135658,620.7,113.8,1089.5,174.3,2633.5,181.6,620,1087.2,2645.4,180.6,68
0.137658,617.5,114.5,1095.3,157.0,2636.1,195.6,617.4,1081.5,2640.1,180.9,68.2
0.139658,614.1,109.9,1099.6,141.7,2635.1,195.3,614.7,1077.1,2634.4,181.2,68.5
0.141658,611.1,102.9,1101.2,126.4,2635.7,192.2,611.9,1073.9,2628.3,181.5,68.8
0.143658,608.3,97.7,1100.5,112.7,2638.9,197.4,609,1072.3,2622,181.8,69.2
0.145658,605.6,94.9,1099.2,101.3,2639.9,207.0,606.1,1072.4,2615.8,182,69.6
0.147658,603.3,93.3,1097.7,92.8,2632.1,204.7,603.2,1074.2,2609.7,182.3,70.1
0.149658,601.1,90.9,1095.8,85.7,2617.5,185.0,600.3,1077.7,2604,182.6,70.5
0.151658,599.0,87.6,1093.9,80.3,2605.6,167.0,597.4,1083.1,2598.7,182.8,70.8
0.153658,596.3,85.6,1092.4,77.2,2596.7,161.3,594.7,1090.1,2593.9,183.1,71.1
0.155658,592.5,87.2,1092.3,77.1,2589.0,167.2,592.1,1098.8,2589.7,183.3,71.2
0.157658,587.4,92.1,1095.6,78.7,2581.6,175.2,589.7,1108.8,2586.2,183.6,71.3
0.159658,582.5,95.5,1102.5,79.4,2575.1,172.8,587.4,1120.1,2583.3,183.8,71.3
0.161658,578.7,94.9,1111.6,78.0,2569.3,163.7,585.3,1132.4,2581.1,184,71.3
0.163658,576.4,92.7,1120.3,75.7,2564.0,159.3,583.4,1145.4,2579.6,184.3,71.4
0.165658,574.5,93.0,1128.2,73.9,2559.3,165.6,581.7,1158.8,2578.6,184.5,71.4
0.167658,572.8,98.5,1137.1,73.2,2556.9,183.6,580.2,1172.3,2578.2,184.7,71.4
0.169658,573.0,108.3,1147.5,74.3,2560.8,209.1,578.9,1185.5,2578.2,184.9,71.5
0.171658,576.0,120.0,1159.6,77.9,2573.8,239.7,577.7,1198.1,2578.5,185.1,71.5
0.173658,581.1,131.0,1174.3,85.2,2595.9,267.7,576.7,1209.7,2579,185.2,71.4
0.175658,586.5,140.5,1194.2,97.3,2621.3,281.2,575.9,1220.2,2579.7,185.4,71.3
0.177658,588.6,146.5,1218.9,112.3,2630.6,283.0,575.3,1229.2,2580.4,185.6,71.1
0.179658,585.8,150.3,1251.0,127.5,2618.8,284.9,574.8,1236.4,2581,185.7,70.9
0.181658,578.9,156.8,1287.2,130.2,2593.0,276.4,574.4,1241.7,2581.5,185.9,70.8
0.183658,569.4,166.5,1310.0,108.7,2553.4,259.4,574.2,1244.9,2581.8,186,70.7
0.185658,565.9,166.9,1315.0,85.2,2514.7,253.6,574.2,1246,2581.9,186.1,70.9
