time,f1,b1,f2,b2,f3,b3,f1p,f2p,f3p,f0,intensity
0.025068,451.6,237.5,1098.5,413.3,2653.3,364.6,476.4,1068.7,2614.9,0,63.9
0.027068,462.6,223.7,1085.0,304.7,2619.3,255.8,478.5,1072.3,2612.7,0,64.2
0.029068,473.0,213.2,1080.9,238.0,2606.6,207.4,481.9,1078.3,2609.2,0,64.4
0.031068,484.4,214.2,1082.7,197.3,2601.9,187.9,486.6,1086.8,2604.6,0,64.6
0.033068,497.9,219.2,1090.4,176.1,2599.0,188.0,492.5,1098,2599.3,0,65
0.035068,511.4,205.0,1104.0,161.1,2592.3,198.2,499.2,1111.9,2593.4,0,65.5
0.037068,519.4,166.4,1119.1,145.3,2579.6,205.9,506.8,1128.7,2587.4,0,66.2
0.039068,526.0,121.7,1134.9,129.9,2561.5,205.6,514.8,1148.3,2581.7,0,66.8
0.041068,534.7,91.2,1153.3,123.2,2547.4,205.8,523.2,1170.7,2576.7,0,67.3
0.043068,544.9,74.4,1180.0,127.6,2544.5,220.7,531.6,1195.8,2572.6,0,67.6
0.045068,552.8,69.5,1213.9,139.1,2556.9,251.8,539.7,1223.3,2569.8,72.4,67.7
0.047068,557.2,72.9,1253.6,145.9,2578.8,284.1,547.4,1252.9,2568.4,72.2,67.6
0.049068,558.2,80.8,1288.8,138.2,2589.6,292.0,554.2,1284.3,2568.8,72.1,67.5
0.051068,558.3,87.3,1322.7,122.3,2582.8,277.8,560,1317,2570.9,71.9,67.3
0.053068,560.1,85.6,1355.8,108.7,2573.5,259.0,564.5,1350.4,2574.7,71.7,67.1
0.055068,563.6,79.6,1392.5,101.8,2579.0,253.6,567.5,1384.1,2580.3,71.5,67
0.057068,564.4,80.0,1430.5,104.1,2599.8,269.9,568.9,1417.7,2587.5,71.3,67
0.059068,559.3,90.2,1470.3,111.6,2621.3,297.4,568.7,1450.6,2596.1,71.1,67
0.061068,551.3,103.1,1501.6,116.7,2628.6,318.4,566.7,1482.6,2605.9,70.9,67.1
0.063068,545.2,110.2,1524.5,118.2,2623.8,338.2,563,1513.5,2616.7,70.7,67.1
0.065068,542.5,109.8,1542.3,123.0,2619.1,371.2,557.7,1543.2,2628.4,70.5,67
0.067068,541.0,107.0,1563.7,140.7,2628.0,430.5,550.9,1571.9,2640.5,70.3,66.8
0.069068,538.9,103.4,1591.7,171.9,2648.9,485.9,542.8,1599.7,2653.1,70.1,66.5
0.071068,535.0,99.1,1624.6,206.2,2666.8,487.3,533.7,1627.1,2665.8,70,66.2
0.073068,528.5,98.7,1646.7,226.1,2670.4,428.7,523.9,1654.4,2678.5,69.8,65.9
0.075068,518.7,103.7,1656.0,239.0,2667.7,358.2,513.5,1682.3,2691.1,69.6,65.6
0.077068,510.3,109.2,1667.3,260.3,2674.6,324.0,503,1711.2,2703.6,69.5,65.4
0.079068,504.4,113.7,1702.5,302.4,2699.0,333.0,492.6,1741.5,2715.9,69.3,65.2
0.081068,497.8,114.3,1767.3,349.9,2732.8,368.4,482.5,1773.9,2728,69.2,65.1
0.083068,487.0,108.2,1846.2,371.4,2763.4,379.2,473,1808.3,2739.9,69.1,65
0.085068,476.2,101.6,1897.7,369.4,2773.5,335.4,464.3,1845.1,2751.5,69.1,65
0.087068,467.6,101.9,1925.4,371.9,2772.8,279.0,456.4,1883.9,2762.8,69,65.1
0.089068,459.8,109.6,1944.3,373.5,2776.8,241.9,449.4,1924.6,2773.8,69,65.1
0.091068,450.8,119.9,1967.7,362.6,2789.4,211.9,443.4,1966.5,2784.5,69,65.1
0.093068,442.5,131.2,1997.5,351.4,2801.7,184.6,438.1,2008.9,2794.8,69,65
0.095068,432.6,151.1,2035.3,353.3,2808.0,164.2,433.6,2050.8,2804.6,69,64.8
0.097068,419.3,178.1,2072.0,367.7,2808.9,156.7,429.6,2091.1,2813.8,69.1,64.6
0.099068,403.7,196.4,2107.9,386.5,2810.1,159.4,425.9,2128.8,2822.2,69.1,64.3
0.101068,393.1,189.5,2144.9,395.3,2814.9,168.3,422.4,2162.7,2829.8,69.3,64.1
0.103068,387.0,165.2,2188.4,379.8,2825.1,179.4,418.8,2191.9,2836.4,69.4,63.9
0.105068,385.2,140.4,2225.9,344.9,2838.9,184.3,414.9,2215.3,2841.9,69.5,63.7
0.107068,388.3,120.7,2248.6,316.3,2851.4,177.8,410.6,2232.3,2846.2,69.7,63.4
0.109068,395.8,108.1,2254.2,317.4,2857.9,165.7,405.8,2242.6,2849.3,69.9,63
0.111068,405.6,100.5,2248.2,355.5,2861.3,153.3,400.4,2246,2851.1,70.1,62.6
0.113068,411.7,95.8,2238.2,420.6,2864.4,143.4,394.4,2242.7,2851.8,70.3,62.1
0.115068,412.3,89.1,2228.2,492.3,2866.7,135.6,387.8,2233.3,2851.3,70.6,61.6
0.117068,409.3,80.6,2214.1,549.9,2865.1,132.0,380.9,2218.7,2849.9,70.8,61.2
0.119068,405.3,74.5,2195.0,612.4,2856.3,140.1,373.7,2200,2847.7,71.1,60.7
0.121068,402.2,75.0,2177.4,694.2,2835.7,167.5,366.5,2178.4,2844.9,71.4,60.3
0.123068,399.0,82.8,2157.3,800.7,2800.2,205.0,359.6,2155.6,2841.7,71.6,60.1
0.125068,390.6,97.6,2134.0,855.1,2783.1,209.4,353.1,2133,2838.6,71.9,59.9
0.127068,369.5,123.2,2122.3,826.0,2799.2,185.6,347.4,2112.1,2835.6,72.2,59.7
0.129068,338.6,158.4,2119.8,787.6,2820.7,168.1,342.7,2094.3,2832.9,72.4,59.5
0.131068,307.2,197.5,2105.9,797.3,2841.5,169.4,339.2,2080.6,2830.9,72.7,59.3
0.133068,287.8,225.8,2069.2,886.4,2862.3,190.0,337,2072.1,2829.7,73,59
0.135068,276.5,248.1,2019.0,1069.7,2887.2,215.6,336.3,2069.1,2829.2,73.2,58.6
