time,f1,b1,f2,b2,f3,b3,f1p,f2p,f3p,f0,intensity
0.025454,232.3,306.3,1779.6,244.2,2655.0,580.1,291.4,1784,2698.1,180.3,72.3
0.027454,247.9,323.6,1769.1,240.6,2626.9,588.8,293.2,1772.4,2701.3,180.6,72.3
0.029454,270.3,312.2,1751.5,238.2,2619.0,598.8,296.1,1753.3,2706.6,180.8,72.2
0.031454,292.5,294.9,1728.5,240.8,2658.1,599.9,300,1727.3,2713.9,181.1,72.2
0.033454,311.9,268.5,1697.3,255.5,2737.9,570.0,304.9,1695,2722.8,181.3,72
0.035454,327.3,226.7,1650.3,289.6,2791.7,520.9,310.5,1657.2,2733.3,181.6,71.8
0.037454,339.4,188.4,1590.6,335.8,2789.8,474.0,316.7,1614.8,2745,181.8,71.6
0.039454,349.9,165.8,1533.0,376.1,2767.5,439.5,323.4,1569,2757.6,182,71.4
0.041454,358.7,155.6,1491.3,381.4,2756.1,451.0,330.4,1520.8,2770.9,182.2,71.3
0.043454,366.5,157.0,1470.2,362.1,2782.9,512.3,337.4,1471.3,2784.4,182.4,71.2
0.045454,374.3,168.9,1459.4,343.3,2860.7,527.3,344.4,1421.8,2797.9,182.6,71.2
0.047454,379.5,173.4,1431.2,321.8,2919.2,514.5,351,1373.2,2811,182.8,71.3
0.049454,379.4,161.4,1377.0,298.4,2958.2,576.3,357.2,1326.8,2823.5,182.9,71.4
0.051454,376.9,148.2,1317.1,270.6,2923.3,608.8,362.8,1283.4,2835.2,183,71.6
0.053454,373.9,139.6,1260.4,239.7,2857.7,460.0,367.6,1243.9,2845.7,183.1,71.9
0.055454,370.9,131.9,1211.7,205.0,2835.5,323.4,371.7,1209.1,2855,183.2,72.2
0.057454,367.9,121.8,1175.8,171.0,2831.6,233.4,375,1179.3,2862.9,183.3,72.5
0.059454,365.0,108.4,1150.5,143.9,2833.8,180.0,377.3,1155.1,2869.4,183.3,72.8
0.061454,362.4,94.1,1131.1,126.1,2838.8,155.1,378.8,1136.7,2874.3,183.3,73.1
0.063454,360.2,81.3,1115.5,117.7,2845.1,152.4,379.4,1124,2877.7,183.3,73.3
0.065454,358.4,71.2,1102.8,118.0,2848.0,163.5,379.2,1117,2879.8,183.3,73.5
0.067454,357.3,65.3,1091.5,127.5,2842.4,174.4,378.3,1115.3,2880.5,183.2,73.7
0.069454,357.5,64.9,1081.6,145.3,2832.7,174.8,376.9,1118.5,2880,183.2,73.9
0.071454,359.3,68.9,1076.9,164.0,2824.4,172.0,374.9,1126.1,2878.5,183.1,74.1
0.073454,362.0,74.4,1083.2,177.7,2819.7,177.3,372.5,1137.2,2876.2,183,74.2
0.075454,364.5,78.8,1104.8,190.4,2821.8,197.1,370,1151.2,2873.2,182.9,74.3
0.077454,366.2,81.1,1142.5,208.1,2837.8,231.2,367.3,1167.3,2869.8,182.8,74.4
0.079454,366.9,80.1,1191.6,228.5,2871.2,263.6,364.7,1184.6,2866.1,182.6,74.6
0.081454,366.2,72.6,1239.7,243.2,2906.1,277.4,362.3,1202.2,2862.3,182.5,74.7
0.083454,364.5,57.8,1273.8,251.0,2921.3,283.1,360,1219.4,2858.6,182.3,74.8
0.085454,363.3,42.3,1290.9,258.1,2911.8,290.7,358.2,1235.4,2855,182.1,74.9
0.087454,363.4,32.1,1297.3,268.9,2888.8,299.1,356.7,1249.6,2851.8,181.9,75
0.089454,364.6,28.0,1302.8,286.3,2870.0,317.9,355.6,1261.3,2848.9,181.7,75.1
0.091454,366.0,27.5,1309.1,305.0,2860.9,350.9,355.1,1270.1,2846.4,181.4,75.1
0.093454,366.9,28.3,1304.4,306.3,2849.6,383.0,354.9,1275.7,2844.4,181.2,75.2
0.095454,367.1,28.4,1284.5,282.9,2828.6,398.6,355.2,1277.7,2842.8,180.9,75.2
0.097454,366.5,27.5,1263.4,252.8,2818.9,389.2,355.9,1276.2,2841.5,180.6,75.3
0.099454,365.7,26.2,1250.8,233.0,2835.2,363.5,356.9,1271.2,2840.4,180.3,75.3
0.101454,365.0,25.6,1245.0,226.3,2863.8,328.1,358.1,1262.9,2839.6,180,75.4
0.103454,364.3,25.8,1236.0,227.5,2879.1,291.5,359.5,1251.5,2838.8,179.6,75.4
0.105454,363.2,26.6,1214.1,226.1,2870.7,264.3,360.9,1237.5,2838,179.2,75.4
0.107454,361.8,27.5,1181.2,206.0,2849.1,245.3,362.3,1221.2,2837.1,178.9,75.5
0.109454,360.4,28.8,1154.5,166.2,2832.3,234.3,363.6,1203.4,2836,178.5,75.5
0.111454,359.5,31.6,1142.0,130.8,2826.3,233.7,364.6,1184.5,2834.5,178,75.6
0.113454,358.8,36.8,1135.9,110.6,2824.5,234.5,365.4,1165.1,2832.7,177.6,75.6
0.115454,358.0,43.5,1129.8,101.1,2820.3,230.9,365.9,1146,2830.3,177.2,75.6
0.117454,357.2,50.7,1122.9,95.8,2812.6,228.0,365.9,1127.8,2827.6,176.7,75.6
0.119454,356.3,57.3,1117.2,90.4,2803.8,229.9,365.5,1110.9,2824.3,176.2,75.6
0.121454,355.7,62.4,1114.1,83.5,2794.1,238.9,364.7,1096.1,2820.6,175.8,75.5
0.123454,355.4,66.2,1112.9,76.5,2781.6,256.3,363.5,1083.7,2816.5,175.3,75.6
0.125454,355.2,69.0,1110.9,71.3,2768.1,276.5,361.9,1074.2,2812,174.8,75.6
0.127454,355.0,69.8,1106.0,67.1,2765.3,280.3,360,1067.9,2807.3,174.3,75.6
0.129454,354.4,67.8,1099.5,62.6,2781.0,250.4,357.8,1065.1,2802.4,173.8,75.7
0.131454,353.1,63.3,1093.0,57.7,2799.4,202.0,355.3,1065.9,2797.5,173.3,75.7
0.133454,351.4,57.3,1087.0,53.6,2808.3,161.3,352.6,1070.3,2792.7,172.7,75.8
0.135454,349.9,52.4,1082.9,52.7,2809.5,136.0,349.9,1078.4,2788.1,172.2,75.9
0.137454,348.9,50.8,1083.7,58.5,2807.1,124.6,347.2,1089.9,2783.9,171.7,75.9
0.139454,348.3,52.7,1092.7,74.4,2803.9,123.5,344.5,1104.7,2780,171.2,76
0.141454,347.7,54.0,1112.4,98.7,2799.7,126.3,342,1122.6,2776.7,170.7,76
0.143454,346.3,50.4,1141.9,119.2,2793.8,124.8,339.7,1143,2774,170.1,76.1
0.145454,344.3,42.5,1174.5,123.4,2788.3,117.3,337.6,1165.7,2771.9,169.6,76.2
0.147454,342.5,34.4,1202.0,113.6,2785.6,109.7,335.7,1190.1,2770.4,169.1,76.3
0.149454,341.0,29.0,1220.5,102.4,2785.9,105.3,334.2,1215.8,2769.7,168.6,76.5
0.151454,340.1,26.7,1230.5,99.5,2786.2,101.8,333,1242.3,2769.5,168.1,76.6
0.153454,339.1,26.6,1237.5,108.1,2783.0,95.8,332.1,1269,2769.9,167.7,76.8
0.155454,337.7,27.4,1249.1,124.8,2776.5,90.1,331.5,1295.4,2770.8,167.2,76.9
0.157454,336.2,27.6,1270.8,139.0,2768.9,87.9,331.1,1321.1,2772.2,166.7,77
0.159454,334.5,26.7,1302.3,143.4,2761.7,88.6,331,1345.6,2773.8,166.3,77.1
0.161454,332.6,25.0,1340.6,140.6,2755.8,90.2,331,1368.3,2775.6,165.9,77.2
0.163454,331.0,22.7,1382.9,130.9,2752.9,92.1,331.2,1388.9,2777.5,165.5,77.3
0.165454,329.5,20.8,1420.5,113.7,2755.5,95.6,331.4,1407,2779.3,165.1,77.4
0.167454,328.0,20.5,1444.2,96.6,2763.6,102.7,331.7,1422.2,2780.9,164.7,77.4
0.169454,326.7,22.0,1456.9,88.0,2775.3,112.2,332,1434.4,2782.3,164.3,77.5
0.171454,325.4,24.8,1466.1,89.5,2787.0,117.7,332.2,1443.2,2783.4,164,77.5
0.173454,324.2,28.4,1474.9,98.8,2794.5,116.8,332.3,1448.6,2784.1,163.7,77.5
0.175454,323.2,32.0,1483.6,115.3,2795.9,114.6,332.4,1450.4,2784.3,163.4,77.4
