time,f1,b1,f2,b2,f3,b3,f1p,f2p,f3p,f0,intensity
0.025522,681.3,80.1,1117.2,197.0,2460.9,167.6,740.4,1082.3,2462.6,98.1,62.7
0.027522,684.1,94.6,1126.0,151.5,2463.0,155.9,741.1,1084.3,2462.2,99.3,62.8
0.029522,691.9,114.3,1133.1,127.7,2470.3,153.5,742.3,1087.7,2461.7,100.7,62.9
0.031522,699.0,118.1,1135.2,115.5,2472.8,147.8,743.9,1092.3,2460.9,102.3,63.1
0.033522,703.7,110.2,1132.9,107.8,2465.0,135.6,745.9,1098.2,2459.9,104,63.2
0.035522,709.8,107.8,1129.4,109.3,2449.1,126.4,748.4,1105.2,2458.7,105.8,63.3
0.037522,722.6,123.4,1132.4,131.6,2436.8,139.4,751.3,1113.3,2457.3,107.8,63.4
0.039522,742.9,155.3,1147.7,175.5,2441.2,189.6,754.5,1122.5,2455.8,110,63.4
0.041522,756.0,179.2,1163.6,199.2,2462.3,249.0,758,1132.5,2454,112.3,63.4
0.043522,758.5,190.1,1170.9,191.6,2483.8,281.0,761.8,1143.3,2452.1,114.7,63.3
0.045522,755.6,191.7,1171.2,170.4,2490.7,274.8,765.8,1154.8,2449.9,117.2,63
0.047522,752.1,189.6,1171.1,150.0,2483.5,248.8,770.1,1166.8,2447.7,0,62.5
0.049522,751.6,190.9,1178.5,135.2,2465.7,222.3,774.5,1179.2,2445.3,0,61.9
0.051522,763.0,210.5,1200.9,132.9,2446.2,222.2,779,1191.9,2442.8,0,61.4
0.053522,792.8,253.2,1223.7,134.1,2431.7,231.9,783.6,1204.8,2440.2,0,61.3
0.055522,824.3,279.0,1229.3,127.7,2419.7,204.5,788.1,1217.6,2437.5,0,61.7
0.057522,848.7,294.3,1228.8,122.1,2412.9,171.3,792.6,1230.2,2434.7,0,62.4
0.059522,871.9,318.2,1227.1,121.7,2410.0,153.5,797.1,1242.6,2431.8,0,63.2
0.061522,893.3,353.1,1224.4,127.0,2409.8,154.6,801.4,1254.6,2429,0,64
0.063522,915.4,397.1,1221.7,135.2,2411.9,169.4,805.4,1266,2426.1,0,64.5
0.065522,929.9,429.3,1224.6,137.3,2415.8,187.7,809.3,1276.7,2423.2,0,65
0.067522,925.2,434.3,1236.3,126.7,2419.9,199.8,812.9,1286.7,2420.3,0,65.3
0.069522,901.3,416.9,1252.6,106.6,2423.1,207.6,816.2,1295.7,2417.4,0,65.6
0.071522,872.2,386.5,1265.8,89.5,2424.6,216.7,819.1,1303.8,2414.7,154,65.8
0.073522,846.4,347.4,1275.8,79.3,2425.0,230.5,821.6,1310.7,2412,156.5,65.9
0.075522,828.9,310.7,1282.9,75.4,2422.6,244.5,823.7,1316.6,2409.4,158.8,66.1
0.077522,819.4,283.8,1286.4,73.6,2415.9,252.0,825.3,1321.2,2406.9,160.9,66.4
0.079522,813.9,264.9,1285.1,69.7,2403.4,250.9,826.5,1324.6,2404.5,162.9,66.7
0.081522,809.5,251.9,1280.2,63.2,2389.3,242.7,827.1,1326.7,2402.3,164.7,67
0.083522,803.2,240.3,1274.1,55.3,2377.7,230.0,827.3,1327.5,2400.3,166.4,67.3
0.085522,795.5,228.7,1269.0,48.7,2372.3,214.4,826.9,1327.1,2398.5,167.9,67.6
0.087522,790.0,216.3,1265.9,44.8,2371.7,195.1,826.1,1325.3,2396.9,169.3,67.9
0.089522,787.9,201.7,1264.5,43.5,2373.5,170.1,824.7,1322.3,2395.5,170.4,68
0.091522,789.0,187.9,1264.7,44.4,2376.2,146.1,822.7,1318,2394.4,171.5,68.2
0.093522,792.1,176.3,1265.4,47.6,2379.8,128.0,820.3,1312.6,2393.5,172.4,68.3
0.095522,795.9,169.1,1265.4,52.3,2384.3,120.1,817.4,1306.2,2392.8,173.1,68.4
0.097522,797.7,163.9,1264.7,56.9,2388.6,121.4,814,1298.6,2392.5,173.8,68.6
0.099522,795.8,156.1,1265.1,60.7,2392.1,132.1,810.1,1290.2,2392.4,174.3,68.8
0.101522,791.1,146.5,1268.2,63.5,2393.3,154.2,805.8,1280.9,2392.6,174.7,69
0.103522,784.4,137.4,1273.1,66.6,2391.6,189.6,801.1,1270.9,2393.2,175,69.2
0.105522,776.1,134.2,1276.4,71.5,2389.4,227.9,796,1260.3,2394,175.3,69.3
0.107522,766.2,138.4,1274.6,79.3,2390.9,254.4,790.6,1249.2,2395.1,175.4,69.3
0.109522,754.8,146.8,1265.7,90.3,2396.8,259.3,784.9,1237.7,2396.5,175.6,69.4
0.111522,745.8,152.5,1254.4,100.6,2405.2,240.6,778.8,1225.9,2398.2,175.6,69.6
0.113522,739.3,152.5,1247.8,108.8,2414.0,210.7,772.6,1214.1,2400.2,175.7,69.7
0.115522,733.5,146.3,1247.5,112.5,2418.8,180.6,766.1,1202.2,2402.5,175.7,69.9
0.117522,726.2,135.7,1247.8,112.4,2418.2,152.7,759.5,1190.4,2405.1,175.6,70.1
0.119522,718.6,124.7,1245.9,114.9,2415.6,124.5,752.8,1178.8,2407.9,175.6,70.2
0.121522,715.2,120.8,1241.6,126.1,2414.8,101.7,746,1167.6,2411,175.6,70.3
0.123522,716.5,128.5,1233.3,147.9,2415.7,83.9,739.1,1156.8,2414.4,175.5,70.3
0.125522,720.5,150.7,1219.0,173.7,2417.4,72.2,732.2,1146.6,2417.9,175.5,70.3
0.127522,723.7,182.3,1197.4,185.3,2419.5,66.2,725.4,1137,2421.7,175.4,70.4
0.129522,721.9,207.2,1172.7,163.5,2423.2,66.4,718.6,1128.1,2425.6,175.4,70.5
0.131522,716.7,200.3,1159.8,125.6,2430.2,76.5,711.9,1119.9,2429.8,175.3,70.8
0.133522,714.3,172.8,1157.4,97.8,2443.0,103.9,705.3,1112.6,2434,175.3,71.2
0.135522,713.4,146.7,1159.3,86.9,2459.3,145.7,698.8,1106.1,2438.4,175.2,71.6
0.137522,710.7,126.9,1159.8,86.3,2469.4,175.7,692.5,1100.6,2442.8,175.2,72
0.139522,705.8,110.9,1154.4,89.1,2471.2,185.0,686.4,1095.9,2447.4,175.1,72.4
0.141522,701.6,102.5,1142.9,89.0,2472.2,187.8,680.4,1092.1,2451.9,175.1,72.7
0.143522,698.0,100.4,1129.5,83.6,2476.4,193.7,674.7,1089.2,2456.5,175.1,73
0.145522,694.1,101.1,1118.7,77.1,2480.5,197.4,669.1,1087.2,2461.1,175,73.2
0.147522,689.5,101.0,1110.0,73.8,2481.8,193.3,663.8,1086,2465.6,175,73.3
0.149522,684.6,97.9,1101.4,74.2,2482.5,184.5,658.6,1085.6,2470.1,174.9,73.4
0.151522,680.9,92.6,1093.5,76.5,2484.9,178.9,653.7,1085.9,2474.4,174.8,73.3
0.153522,677.6,87.9,1086.2,78.2,2489.2,178.5,648.9,1086.8,2478.6,174.8,73.3
0.155522,673.4,86.8,1079.3,78.5,2491.1,177.2,644.4,1088.3,2482.7,174.7,73.1
0.157522,667.5,89.0,1072.5,78.3,2486.9,168.0,640,1090.2,2486.6,174.6,72.9
0.159522,660.0,93.3,1065.3,78.8,2478.6,151.2,635.7,1092.4,2490.3,174.5,72.7
0.161522,653.0,96.9,1059.8,79.6,2473.1,136.4,631.6,1094.9,2493.8,174.4,72.4
0.163522,647.1,96.3,1056.7,77.4,2473.5,129.3,627.7,1097.6,2497.1,174.3,72.1
0.165522,642.1,91.1,1054.9,70.4,2479.3,132.6,623.8,1100.2,2500.1,174.1,71.8
0.167522,636.9,86.4,1052.3,62.4,2486.2,142.2,620,1102.8,2502.9,174,71.6
0.169522,630.4,86.2,1049.4,57.1,2490.6,150.4,616.2,1105.1,2505.3,173.8,71.4
0.171522,623.8,92.0,1048.4,56.4,2494.4,152.7,612.5,1107.1,2507.5,173.6,71.2
0.173522,617.9,101.7,1049.9,58.3,2503.4,155.8,608.7,1108.7,2509.4,173.4,71
0.175522,613.0,108.6,1050.9,59.1,2515.2,162.0,605,1109.7,2511,173.2,70.7
0.177522,607.8,109.8,1048.6,57.3,2523.8,165.7,601.2,1110,2512.3,173,70.5
0.179522,600.3,109.5,1043.8,55.4,2529.4,164.1,597.3,1109.7,2513.3,172.8,70.1
0.181522,591.2,114.1,1040.0,57.3,2535.2,163.2,593.4,1108.4,2514,172.6,69.7
0.183522,580.1,126.2,1038.1,65.8,2539.4,168.9,589.3,1106.3,2514.5,172.3,69.2
0.185522,568.2,137.9,1038.1,82.7,2532.9,180.3,585.2,1103.2,2514.6,172.1,68.7
0.187522,558.4,135.0,1039.0,107.9,2511.5,188.2,580.9,1099.1,2514.5,171.8,68.1
0.189522,551.3,116.8,1038.3,139.9,2483.2,186.1,576.4,1094,2514.2,171.6,67.6
0.191522,545.1,101.4,1032.5,158.0,2464.8,179.9,571.8,1087.8,2513.7,171.3,67.2
0.193522,536.1,95.2,1024.8,147.5,2456.7,179.6,567.1,1080.5,2512.9,171.1,67
0.195522,525.9,96.6,1021.7,120.0,2455.8,189.2,562.2,1072.1,2512,170.8,67
0.197522,518.6,99.2,1021.8,95.0,2459.9,202.6,557.1,1062.7,2511,170.6,67
0.199522,515.7,95.7,1022.0,76.1,2468.0,208.7,551.9,1052.3,2509.9,170.3,67
0.201522,516.0,86.7,1021.9,65.6,2478.0,200.2,546.5,1041,2508.7,170,67.1
0.203522,515.4,77.5,1022.0,61.3,2489.5,184.1,541.1,1028.8,2507.4,169.8,67.1
0.205522,511.4,73.6,1023.2,62.9,2500.6,170.6,535.5,1015.8,2506.2,169.5,67.1
0.207522,505.6,75.8,1023.7,69.4,2509.9,165.1,529.8,1002.2,2504.9,169.2,67.1
0.209522,502.0,82.3,1018.1,80.1,2515.2,171.6,524,987.9,2503.8,169,67
0.211522,503.7,89.4,1002.6,92.4,2514.3,192.3,518.2,973.3,2502.8,168.7,67
0.213522,508.3,94.7,981.2,104.0,2509.1,224.5,512.4,958.3,2501.9,168.5,67
0.215522,510.2,98.2,963.9,112.6,2502.4,261.1,506.6,943.2,2501.2,168.2,67
0.217522,506.7,103.3,952.9,120.5,2495.2,294.5,500.8,928,2500.7,167.9,66.9
0.219522,497.9,111.0,944.4,128.7,2488.5,315.7,495.1,913,2500.5,167.7,66.8
0.221522,487.4,116.0,936.0,134.4,2486.2,315.0,489.5,898.3,2500.6,167.4,66.7
0.223522,478.0,115.5,925.5,137.3,2489.2,299.3,484.1,884.1,2501.1,167.2,66.5
0.225522,472.8,110.5,916.0,138.0,2496.6,278.7,478.9,870.6,2501.9,166.9,66.4
0.227522,472.2,104.4,912.2,136.8,2507.1,262.3,473.9,857.8,2503.1,166.7,66.3
0.229522,474.6,97.4,914.2,132.9,2520.0,254.0,469.1,846.1,2504.7,166.4,66.3
0.231522,477.5,90.9,918.7,127.1,2530.7,259.6,464.6,835.4,2506.8,166.1,66.3
0.233522,479.0,86.0,923.5,121.7,2535.9,288.9,460.5,826.1,2509.4,165.9,66.4
0.235522,478.5,85.0,927.6,120.6,2534.3,356.8,456.7,818.2,2512.4,165.6,66.5
0.237522,477.4,86.8,930.7,122.9,2531.3,462.3,453.3,811.8,2516,165.3,66.7
0.239522,476.5,88.4,933.1,124.3,2535.8,584.6,450.3,807.1,2520.1,165.1,66.8
0.241522,474.9,88.2,933.7,123.3,2553.0,661.9,447.8,804.2,2524.7,164.8,66.9
0.243522,473.8,89.1,932.7,125.5,2608.5,677.7,445.7,803.2,2529.8,164.5,66.9
0.245522,474.5,90.6,929.4,130.7,2685.2,609.5,444.1,804.2,2535.5,164.3,66.8
0.247522,476.1,89.7,923.9,133.5,2717.8,524.6,443.1,807.1,2541.7,164,66.7
0.249522,478.4,88.2,918.1,134.6,2712.2,482.4,442.5,812.2,2548.4,163.8,66.6
0.251522,480.3,87.3,913.7,132.7,2679.7,489.7,442.4,819.3,2555.6,163.5,66.4
0.253522,480.2,87.1,908.9,126.2,2627.3,495.3,442.9,828.4,2563.3,163.3,66.3
0.255522,478.1,87.0,901.8,117.6,2585.3,446.1,443.8,839.7,2571.4,163.1,66.1
0.257522,475.4,87.3,892.3,111.0,2567.0,364.5,445.3,852.9,2580,162.9,66.1
0.259522,470.9,90.3,880.8,107.5,2560.5,284.3,447.2,868.1,2589,162.7,66
0.261522,465.2,96.6,871.9,107.6,2558.1,241.1,449.7,885.2,2598.3,162.5,65.9
0.263522,460.1,105.3,869.8,110.1,2557.9,239.2,452.5,904.1,2607.9,162.4,65.8
0.265522,457.5,113.9,875.5,112.4,2561.8,281.7,455.9,924.6,2617.8,162.3,65.7
0.267522,457.1,122.9,884.4,114.8,2574.5,372.0,459.6,946.7,2628,162.1,65.5
0.269522,459.0,131.6,891.1,120.1,2595.5,474.7,463.6,970.2,2638.3,162.1,65.2
0.271522,460.7,138.4,894.7,127.8,2612.0,515.8,468,994.8,2648.8,162,64.9
0.273522,460.0,143.7,896.1,137.0,2619.4,494.6,472.7,1020.5,2659.4,162,64.6
0.275522,457.7,147.6,895.5,146.7,2619.2,467.5,477.7,1047,2669.9,162,64.3
0.277522,453.8,152.1,893.4,159.4,2605.4,462.8,482.8,1074.2,2680.5,162,64.1
0.279522,447.4,159.0,890.0,173.5,2572.9,473.3,488.1,1101.8,2690.9,162.1,63.9
0.281522,439.9,167.8,885.0,182.4,2539.2,475.5,493.5,1129.6,2701.2,162.2,63.7
0.283522,432.0,178.3,878.4,183.1,2521.5,482.5,498.9,1157.4,2711.3,162.3,63.6
0.285522,426.3,186.9,873.6,179.1,2522.1,523.1,504.4,1184.9,2721.1,162.4,63.5
0.287522,426.8,193.1,871.9,183.2,2543.4,621.6,509.7,1211.9,2730.7,162.6,63.2
0.289522,435.4,200.6,872.8,210.4,2595.3,769.4,515,1238.3,2739.8,162.8,62.9
0.291522,447.2,208.9,875.4,263.3,2664.9,877.8,520.1,1263.7,2748.5,163,62.5
0.293522,458.7,215.2,878.5,340.8,2718.3,833.4,525.1,1288,2756.7,163.2,62
0.295522,467.1,219.8,879.3,425.7,2717.3,647.2,529.7,1310.9,2764.4,163.5,61.5
0.297522,470.2,232.0,872.6,513.8,2705.9,490.2,534.1,1332.3,2771.5,163.7,60.9
0.299522,473.6,270.0,843.9,661.5,2723.9,415.2,538.1,1352,2778,164,60.3
0.301522,517.4,324.8,728.8,1131.8,2788.2,406.1,541.8,1369.8,2783.8,164.3,59.6
0.303522,581.1,248.2,1588.5,1988.3,2881.6,374.1,545,1385.6,2788.9,164.5,59
0.305522,607.3,182.7,1854.7,1313.7,2932.5,323.1,547.8,1399.1,2793.3,164.8,58.4
0.307522,621.7,154.9,1964.0,1010.9,2946.0,314.3,550.1,1410.4,2796.9,165.1,57.8
0.309522,631.6,156.5,2048.2,845.3,2948.5,360.7,552,1419.3,2799.7,165.4,57.3
0.311522,640.2,193.3,2120.9,782.9,2956.2,470.7,553.3,1425.7,2801.8,165.6,56.8
0.313522,654.8,280.2,2195.9,774.4,2981.6,645.2,554.1,1429.5,2803,165.9,56.3
0.315522,681.8,415.9,2271.7,790.7,3025.1,837.0,554.4,1430.8,2803.4,166.2,56
