time,f1,b1,f2,b2,f3,b3,f1p,f2p,f3p,f0,intensity
0.025721,366.7,164.1,1760.0,511.4,2944.6,125.8,358.4,1872.1,3001.6,173.5,67.7
0.027721,365.5,121.5,1786.4,543.7,2946.2,108.1,358.7,1873.7,3000.3,173.3,68.2
0.029721,362.3,89.4,1814.4,514.0,2951.5,96.9,359.3,1876.4,2998.1,173.1,68.7
0.031721,359.8,72.3,1851.8,444.4,2962.4,87.8,360,1880.1,2995,173,69.2
0.033721,360.2,71.3,1893.1,385.3,2974.9,76.0,360.9,1884.8,2991.1,172.8,69.7
0.035721,362.3,76.0,1904.7,370.3,2981.6,78.3,361.9,1890.5,2986.4,172.5,70.1
0.037721,364.1,78.1,1890.4,394.6,2984.1,103.9,363.2,1897,2981,172.3,70.4
0.039721,365.5,78.1,1884.3,405.6,2986.2,145.9,364.6,1904.4,2974.9,172.1,70.7
0.041721,366.3,77.8,1903.5,384.6,2993.3,190.3,366.1,1912.6,2968.1,171.8,70.9
0.043721,366.7,78.5,1935.7,340.6,2990.2,1513.5,367.7,1921.4,2960.8,171.6,71.1
0.045721,367.0,81.1,1967.4,289.1,2997.9,224.9,369.5,1930.8,2953,171.3,71.2
0.047721,367.3,85.7,1993.0,244.0,2984.6,217.1,371.3,1940.8,2944.8,171.1,71.3
0.049721,367.6,90.0,2010.6,220.3,2974.3,207.3,373.1,1951.1,2936.2,170.8,71.3
0.051721,367.9,91.9,2023.4,224.1,2967.8,211.1,375.1,1961.8,2927.4,170.5,71.2
0.053721,368.7,93.7,2037.2,251.5,2956.7,222.8,377,1972.8,2918.4,170.3,71.1
0.055721,370.4,98.2,2055.5,292.3,2936.1,228.0,378.9,1983.8,2909.3,170,71
0.057721,373.4,103.7,2073.3,330.5,2913.9,221.9,380.8,1994.9,2900.1,169.7,70.8
0.059721,377.0,107.7,2081.0,358.7,2900.8,210.2,382.6,2006,2891.1,169.5,70.7
0.061721,381.0,109.9,2078.3,379.8,2893.6,192.5,384.4,2016.9,2882.2,169.2,70.6
0.063721,384.9,111.7,2073.5,386.4,2885.5,169.8,386,2027.5,2873.5,168.9,70.5
0.065721,388.3,114.8,2072.1,378.1,2873.3,151.4,387.6,2037.9,2865.1,168.7,70.5
0.067721,391.2,118.7,2068.7,367.9,2857.0,146.6,389,2047.9,2857.1,168.4,70.5
0.069721,393.3,123.2,2058.5,364.2,2838.2,152.7,390.2,2057.4,2849.5,168.2,70.5
0.071721,394.8,130.5,2041.7,368.1,2821.0,159.7,391.3,2066.4,2842.4,167.9,70.5
0.073721,396.4,139.7,2019.9,380.5,2811.3,161.5,392.2,2074.9,2835.8,167.7,70.5
0.075721,398.0,146.2,1996.7,397.4,2811.4,161.0,393,2082.7,2829.8,167.4,70.4
0.077721,399.4,149.0,1978.7,411.3,2815.1,163.6,393.5,2090,2824.4,167.2,70.3
0.079721,400.6,148.6,1975.2,423.6,2811.5,177.6,393.8,2096.5,2819.7,167,70.2
0.081721,401.4,146.1,1992.3,437.3,2794.6,208.1,393.8,2102.4,2815.6,166.8,70.1
0.083721,401.2,144.5,2027.8,454.1,2766.9,255.8,393.7,2107.5,2812.3,166.6,70
0.085721,400.0,145.6,2072.5,472.8,2746.7,313.4,393.3,2112,2809.6,166.4,70
0.087721,398.3,148.2,2114.8,477.8,2769.1,346.0,392.7,2115.8,2807.6,166.2,70
0.089721,396.5,150.9,2135.9,470.2,2811.0,302.8,391.9,2118.9,2806.2,166.1,70
0.091721,394.4,153.5,2141.9,463.8,2829.9,236.6,390.9,2121.4,2805.6,165.9,70.1
0.093721,392.1,153.9,2148.7,454.5,2834.0,196.5,389.6,2123.3,2805.6,165.7,70.2
0.095721,389.5,150.7,2159.1,443.3,2831.9,185.1,388.2,2124.7,2806.2,165.6,70.2
0.097721,387.0,144.5,2167.8,436.0,2825.8,198.4,386.5,2125.5,2807.4,165.4,70.3
0.099721,384.7,136.5,2169.9,428.1,2816.7,231.6,384.7,2125.8,2809.1,165.3,70.3
0.101721,382.0,129.7,2166.8,406.5,2806.6,275.7,382.7,2125.8,2811.3,165.1,70.3
0.103721,378.7,125.7,2161.6,371.2,2800.6,314.2,380.5,2125.4,2814,165,70.4
0.105721,375.1,122.8,2152.6,335.8,2802.6,324.7,378.2,2124.7,2817,164.8,70.5
0.107721,371.5,120.0,2139.1,308.2,2809.3,301.1,375.8,2123.8,2820.4,164.7,70.6
0.109721,368.1,117.6,2126.7,283.8,2817.7,260.8,373.3,2122.8,2824.1,164.6,70.8
0.111721,365.0,115.3,2121.6,258.0,2828.8,219.4,370.6,2121.7,2828,164.4,70.9
0.113721,361.1,113.9,2122.5,236.1,2840.9,183.7,367.9,2120.5,2832.1,164.3,71
0.115721,356.2,114.0,2122.7,225.9,2849.9,158.9,365.2,2119.4,2836.3,164.2,71.1
0.117721,352.0,115.2,2117.2,226.9,2854.7,146.3,362.4,2118.4,2840.5,164.1,71.1
0.119721,349.9,117.3,2106.4,229.5,2856.9,142.5,359.6,2117.5,2844.8,164,71.1
0.121721,349.6,118.1,2095.9,224.7,2857.7,144.5,356.8,2116.8,2848.9,163.8,71.1
0.123721,349.8,114.3,2093.1,214.6,2859.3,148.4,354.1,2116.4,2853,163.7,71.1
0.125721,348.8,107.1,2100.8,207.3,2864.6,148.0,351.3,2116.3,2856.9,163.6,71.2
0.127721,346.7,100.3,2117.2,207.5,2873.6,141.7,348.7,2116.5,2860.6,163.5,71.2
0.129721,344.7,95.6,2134.6,212.3,2882.8,134.1,346.1,2117,2864.1,163.4,71.2
0.131721,342.9,91.0,2139.8,214.6,2888.3,134.4,343.5,2118,2867.2,163.2,71.3
0.133721,340.7,86.3,2131.7,208.9,2890.0,149.4,341.1,2119.3,2870.1,163.1,71.3
0.135721,338.5,83.0,2123.8,198.3,2888.9,175.5,338.8,2121.1,2872.6,163,71.4
0.137721,336.8,82.0,2122.4,191.7,2884.2,191.4,336.6,2123.3,2874.8,162.9,71.4
0.139721,335.2,83.9,2124.3,191.5,2877.4,182.8,334.6,2125.9,2876.6,162.8,71.3
0.141721,334.0,88.0,2125.8,197.0,2871.4,166.5,332.6,2128.9,2878,162.6,71.3
0.143721,333.4,93.7,2123.7,210.7,2865.9,156.9,330.9,2132.3,2879,162.5,71.2
0.145721,333.1,100.4,2116.8,233.9,2858.9,156.3,329.2,2136,2879.6,162.4,71.1
0.147721,333.4,105.0,2109.5,258.4,2849.7,162.1,327.8,2140.2,2879.8,162.2,71.1
0.149721,334.2,105.7,2110.3,270.9,2841.7,170.3,326.5,2144.6,2879.7,162.1,71
0.151721,334.5,104.8,2122.7,266.7,2840.8,175.1,325.3,2149.4,2879.2,161.9,71
0.153721,334.1,104.5,2140.1,253.3,2847.6,165.4,324.3,2154.3,2878.3,161.8,71.1
0.155721,333.2,104.4,2157.2,242.6,2856.2,136.9,323.5,2159.6,2877.1,161.6,71.1
0.157721,331.9,104.9,2173.8,240.2,2862.6,102.8,322.8,2165,2875.6,161.5,71.2
0.159721,330.4,104.6,2189.2,241.5,2867.1,77.8,322.3,2170.5,2873.8,161.3,71.3
0.161721,328.7,100.9,2200.7,236.9,2870.7,65.1,321.9,2176.1,2871.8,161.1,71.3
0.163721,326.9,95.2,2209.1,219.5,2872.9,62.2,321.7,2181.8,2869.6,160.9,71.4
0.165721,324.9,89.1,2215.7,195.8,2872.7,67.0,321.6,2187.4,2867.2,160.7,71.3
0.167721,323.4,82.3,2219.2,178.8,2869.9,77.3,321.6,2193,2864.6,160.5,71.3
0.169721,322.8,75.1,2219.4,173.2,2867.3,86.5,321.7,2198.6,2862,160.3,71.2
0.171721,323.1,69.5,2217.6,176.4,2868.3,87.7,322,2204,2859.2,160.1,71.1
0.173721,323.9,66.4,2216.7,182.8,2872.6,82.2,322.4,2209.2,2856.4,159.8,70.9
0.175721,324.3,66.3,2220.1,185.5,2877.7,74.8,322.8,2214.2,2853.6,159.5,70.8
0.177721,323.9,69.6,2228.0,178.8,2881.4,68.8,323.4,2219.1,2850.9,159.3,70.8
0.179721,323.4,73.9,2236.1,170.5,2883.0,68.0,324,2223.6,2848.1,159,70.7
0.181721,322.7,74.4,2241.5,181.3,2884.2,79.0,324.7,2227.9,2845.5,158.7,70.5
0.183721,321.1,69.8,2242.3,225.9,2885.3,110.8,325.5,2231.8,2843,158.4,70.4
0.185721,318.9,62.3,2233.8,302.5,2880.6,167.8,326.3,2235.4,2840.6,158.1,70.2
0.187721,316.8,54.6,2215.2,368.6,2865.3,215.1,327.1,2238.7,2838.4,157.7,70
0.189721,315.1,48.7,2200.5,383.8,2850.5,219.5,328,2241.6,2836.4,157.4,69.7
0.191721,314.6,44.2,2195.8,383.9,2836.4,210.0,329,2244.2,2834.6,157,69.4
0.193721,315.7,40.7,2191.4,407.4,2815.3,200.9,329.9,2246.4,2833,156.7,69.1
0.195721,317.2,39.2,2185.9,462.7,2792.4,192.9,330.8,2248.2,2831.6,156.3,68.7
0.197721,319.0,41.6,2194.2,534.3,2778.5,203.6,331.8,2249.7,2830.4,155.9,68.3
0.199721,321.6,48.9,2228.2,576.6,2776.0,253.8,332.8,2250.9,2829.5,155.6,67.9
0.201721,325.0,61.6,2268.8,547.2,2786.5,331.6,333.7,2251.7,2828.8,155.2,67.5
0.203721,328.2,77.7,2283.3,481.2,2801.2,377.3,334.7,2252.1,2828.4,154.8,67.1
0.205721,332.0,93.8,2275.9,422.0,2802.3,365.3,335.6,2252.3,2828.2,154.5,66.7
0.207721,336.0,111.0,2263.0,368.4,2794.9,325.0,336.5,2252.2,2828.2,154.1,66.4
0.209721,338.0,131.2,2255.5,321.4,2795.5,280.8,337.4,2251.8,2828.5,153.8,66
0.211721,336.8,146.2,2254.6,289.6,2806.9,237.4,338.2,2251.2,2828.9,153.4,65.8
0.213721,335.0,144.6,2258.6,279.9,2822.1,194.1,339.1,2250.3,2829.6,153.1,65.5
0.215721,335.2,133.5,2270.2,293.4,2836.4,154.7,339.8,2249.3,2830.4,152.8,65.2
0.217721,338.4,123.4,2289.7,317.4,2846.7,125.6,340.6,2248.1,2831.4,152.5,64.9
0.219721,344.3,111.3,2302.7,346.0,2851.8,115.6,341.3,2246.7,2832.6,0,64.5
0.221721,351.6,96.9,2294.3,409.1,2851.2,130.0,342,2245.2,2833.9,0,64.1
0.223721,358.0,91.5,2259.6,540.5,2843.7,168.6,342.7,2243.6,2835.2,0,63.9
0.225721,362.5,97.4,2226.0,652.1,2842.4,206.7,343.3,2241.9,2836.7,0,63.8
0.227721,366.9,102.1,2230.8,633.0,2857.7,217.3,343.9,2240.2,2838.2,0,63.6
0.229721,371.6,97.0,2242.1,552.9,2872.5,202.7,344.4,2238.5,2839.8,0,63.5
0.231721,375.7,84.8,2245.9,478.1,2879.0,182.4,344.9,2236.8,2841.4,0,63.1
0.233721,378.7,73.0,2246.0,419.4,2881.1,166.9,345.4,2235.1,2843,0,62.5
0.235721,380.0,68.8,2243.2,376.5,2881.6,160.5,345.8,2233.4,2844.6,0,61.7
0.237721,376.9,81.1,2233.2,348.0,2881.8,164.7,346.2,2231.8,2846.1,0,60.9
0.239721,363.9,120.3,2215.8,334.3,2881.0,175.3,346.5,2230.3,2847.6,0,60.3
0.241721,340.7,166.3,2199.6,332.9,2879.1,183.4,346.8,2228.9,2849,0,60
0.243721,325.5,171.5,2190.8,331.3,2873.9,178.0,347.1,2227.5,2850.3,0,60.1
0.245721,322.4,153.5,2188.6,322.4,2863.5,154.9,347.3,2226.3,2851.5,0,60.4
0.247721,326.1,138.2,2190.7,308.5,2852.3,131.2,347.6,2225.3,2852.5,0,60.7
0.249721,333.7,127.9,2196.9,298.5,2843.4,119.0,347.7,2224.4,2853.4,0,60.8
0.251721,342.0,121.2,2207.8,297.8,2835.3,116.9,347.9,2223.6,2854.2,0,60.6
0.253721,347.1,120.7,2222.4,312.4,2825.4,123.3,348,2223,2854.8,0,60.2
0.255721,344.5,133.9,2237.9,355.1,2811.5,137.1,348.1,2222.6,2855.2,0,59.4
0.257721,330.0,170.9,2252.0,433.3,2799.5,151.0,348.1,2222.3,2855.5,0,58.5
0.259721,303.8,234.0,2264.9,492.8,2806.1,156.2,348.1,2222.2,2855.6,0,57.4
