time,f1,b1,f2,b2,f3,b3,f1p,f2p,f3p,f0,intensity
0.025821,451.3,448.9,1722.0,164.5,2769.2,64.1,429.6,1739.1,2763,137.6,63.8
0.027821,431.3,384.8,1731.6,158.9,2768.8,55.2,427.1,1753.1,2763.5,137.9,63.8
0.029821,416.5,285.4,1744.7,166.8,2769.3,52.0,423.1,1775.8,2764.5,138.3,63.7
0.031821,407.4,209.2,1769.2,203.8,2771.3,59.6,417.8,1806.5,2766,138.8,63.5
0.033821,402.9,174.1,1815.5,279.2,2770.7,82.9,411.7,1844,2768.2,139.2,63.3
0.035821,400.5,168.1,1884.9,373.0,2761.0,114.6,405,1887.1,2771.2,139.7,63.1
0.037821,398.1,170.7,1962.4,442.5,2750.8,130.7,398.1,1934.4,2775.2,140.2,62.9
0.039821,394.5,168.3,2037.3,476.0,2753.4,131.9,391.4,1984.3,2780.2,140.7,62.8
0.041821,388.6,164.6,2110.2,493.5,2769.8,130.1,385.2,2035.1,2786.4,141.3,62.7
0.043821,380.2,163.3,2173.3,505.5,2794.2,124.6,379.8,2085.4,2793.8,141.9,62.7
0.045821,372.4,157.2,2208.4,510.0,2817.5,111.8,375.3,2133.7,2802.3,142.5,62.8
0.047821,368.7,141.6,2211.0,504.5,2836.0,95.1,371.7,2178.7,2811.9,143.1,62.9
0.049821,368.7,124.0,2196.4,497.8,2851.7,81.1,369.1,2219.4,2822.4,143.7,63
0.051821,369.7,113.1,2186.2,509.1,2865.2,74.0,367.1,2254.9,2833.6,144.4,63.1
0.053821,368.6,111.0,2198.7,545.4,2872.0,75.9,365.6,2284.6,2845.1,145,63.3
0.055821,363.4,116.2,2237.6,580.6,2867.8,87.8,364.4,2308.3,2856.8,145.6,63.4
0.057821,355.3,124.5,2280.7,575.3,2855.0,105.9,362.9,2325.8,2868.1,146.3,63.5
0.059821,349.1,128.0,2306.6,529.6,2842.7,123.7,361.1,2337.5,2878.9,146.9,63.4
0.061821,349.7,121.1,2320.6,471.8,2840.0,143.4,358.4,2343.7,2888.7,147.6,63.3
0.063821,355.8,106.6,2332.9,424.4,2852.5,171.4,354.7,2345.1,2897.2,148.2,63
0.065821,361.6,90.7,2343.5,397.7,2879.4,198.6,349.9,2342.4,2904.4,148.9,62.7
0.067821,361.9,78.9,2351.9,404.6,2908.1,207.2,343.9,2336.4,2909.8,149.5,62.5
0.069821,355.2,75.0,2365.2,456.5,2927.7,201.4,336.8,2328.1,2913.6,150.1,62.3
0.071821,343.1,79.4,2387.4,547.7,2938.2,196.3,328.8,2318.4,2915.6,150.7,62.2
0.073821,328.0,87.5,2403.2,646.2,2942.8,205.7,320,2308,2915.9,151.2,62.1
0.075821,311.3,92.6,2385.8,685.9,2949.0,237.6,310.9,2297.7,2914.7,151.7,62.3
0.077821,292.8,94.1,2341.9,644.7,2957.2,278.1,301.9,2288.2,2912.1,152.3,62.5
0.079821,274.9,96.2,2293.2,622.7,2942.4,279.1,293.3,2279.8,2908.4,152.7,62.8
0.081821,263.5,98.8,2237.0,668.7,2903.0,224.3,285.6,2273,2903.8,153.2,63.1
0.083821,261.1,97.8,2169.4,736.2,2869.6,157.5,279.2,2267.8,2898.7,153.6,63.4
0.085821,263.1,94.5,2129.6,772.0,2852.5,119.0,274.2,2264.4,2893.2,154,63.5
0.087821,264.6,93.3,2156.6,759.0,2847.1,117.9,270.8,2262.5,2887.6,154.4,63.6
0.089821,265.8,93.2,2217.4,675.9,2850.8,149.8,269.2,2262,2882.1,154.7,63.6
0.091821,269.5,92.1,2264.6,568.5,2863.1,214.0,269.2,2262.5,2877,155,63.4
0.093821,276.9,88.8,2300.4,487.4,2881.4,324.9,270.6,2263.7,2872.2,155.3,63.1
0.095821,287.1,84.2,2338.6,432.4,2899.8,498.1,273.1,2265,2867.8,155.5,62.6
0.097821,297.3,79.8,2364.8,396.4,2897.8,654.0,276.4,2266.2,2863.9,155.7,62.1
0.099821,304.0,76.3,2347.4,396.7,2865.4,600.9,280,2266.8,2860.4,155.9,61.6
0.101821,304.7,75.2,2286.7,399.7,2845.5,430.3,283.5,2266.5,2857.2,156.1,61.2
0.103821,300.3,76.8,2227.6,379.8,2845.2,309.1,286.5,2265.1,2854.3,156.2,60.9
0.105821,293.1,81.2,2206.4,356.9,2850.9,255.6,288.5,2262.4,2851.5,156.3,60.8
0.107821,283.4,88.0,2228.5,328.0,2854.0,250.8,289.2,2258.4,2848.7,156.4,60.8
0.109821,271.6,97.8,2258.9,288.7,2853.6,262.6,288.6,2253.1,2845.9,156.5,60.9
0.111821,260.5,114.7,2267.9,266.0,2849.8,263.5,286.4,2246.5,2843.1,156.6,60.9
0.113821,254.0,138.9,2256.4,275.6,2845.0,249.7,282.9,2239.1,2840.1,156.6,60.8
0.115821,254.7,162.0,2231.2,316.7,2839.3,227.6,278.1,2230.9,2837.2,156.6,60.5
0.117821,261.4,172.7,2195.8,383.7,2829.0,207.2,272.4,2222.5,2834.1,156.7,60.1
0.119821,268.4,173.6,2165.6,460.4,2816.5,201.6,266.1,2214.2,2831.2,156.7,59.6
0.121821,270.5,178.3,2172.2,505.2,2810.9,220.3,259.8,2206.3,2828.5,156.7,59
0.123821,268.0,193.5,2199.1,467.4,2818.1,229.4,253.8,2199.2,2826,156.7,58.5
0.125821,262.7,221.9,2206.0,395.7,2826.7,186.4,248.6,2193.3,2824,156.7,58.1
0.127821,254.7,254.2,2202.5,345.2,2827.9,133.3,244.6,2188.9,2822.4,156.6,58
0.129821,244.4,272.5,2203.3,320.6,2828.1,102.6,242,2186.1,2821.5,156.6,58.2
0.131821,238.5,272.7,2210.8,318.4,2830.3,95.2,241.2,2185.2,2821.1,156.6,58.7
