time,f1,b1,f2,b2,f3,b3,f1p,f2p,f3p,f0,intensity
0.025671,748.0,67.6,1668.2,237.3,2596.0,666.5,851.9,1608,2314.4,0,58.3
0.027671,751.9,74.1,1682.1,265.5,2457.5,749.3,851.4,1608,2315.4,0,58.4
0.029671,754.5,82.3,1682.4,297.0,2332.1,622.0,850.5,1608.1,2317.1,0,58.4
0.031671,759.5,87.3,1678.3,319.7,2299.3,507.7,849.3,1608.3,2319.4,0,58.4
0.033671,768.7,85.5,1673.2,348.0,2297.3,455.0,847.7,1608.5,2322.4,0,58.4
0.035671,779.5,81.2,1658.2,364.2,2304.9,438.8,845.8,1608.7,2326,0,58.4
0.037671,791.1,84.9,1627.4,301.2,2325.5,462.1,843.5,1609.1,2330.3,0,58.8
0.039671,805.7,105.8,1603.5,203.5,2340.6,548.2,840.9,1609.5,2335.2,0,59.6
0.041671,824.5,137.6,1591.0,155.1,2331.6,657.7,838,1610.1,2340.8,0,60.7
0.043671,843.8,167.5,1582.2,132.0,2311.1,741.2,834.7,1610.9,2346.9,0,61.7
0.045671,858.2,187.1,1576.7,119.0,2304.3,777.0,831.1,1611.8,2353.7,0,62.5
0.047671,866.5,196.6,1573.2,109.5,2316.0,763.3,827.2,1613,2361,0,63.1
0.049671,867.2,196.9,1569.9,102.8,2322.7,700.0,822.9,1614.4,2369,0,63.3
0.051671,859.7,193.8,1567.8,99.5,2325.8,607.4,818.3,1616.1,2377.4,0,63.3
0.053671,843.3,199.5,1573.0,103.0,2347.5,548.3,813.4,1618.1,2386.5,0,63.3
0.055671,820.7,210.0,1586.1,107.6,2381.3,557.7,808.2,1620.4,2396,0,63.3
0.057671,805.9,212.9,1593.8,104.0,2418.6,592.3,802.8,1623.1,2406,0,63.5
0.059671,800.6,211.1,1593.6,99.1,2458.8,599.7,797,1626.3,2416.6,0,63.8
0.061671,798.7,207.0,1593.1,99.3,2487.0,560.0,790.9,1629.9,2427.6,0,64.4
0.063671,796.8,200.5,1601.8,105.6,2493.1,498.4,784.6,1634,2439,0,65
0.065671,796.1,189.2,1623.1,109.9,2483.7,441.2,778,1638.6,2450.8,0,65.8
0.067671,797.7,173.1,1645.4,104.1,2465.7,386.3,771.1,1643.8,2463.1,199.4,66.6
0.069671,800.5,157.7,1656.8,97.5,2444.7,340.8,764,1649.6,2475.6,199.6,67.4
0.071671,802.6,144.5,1664.3,97.8,2433.0,306.3,756.7,1656,2488.6,199.8,68.2
0.073671,802.8,133.3,1673.5,104.0,2435.8,281.1,749.1,1663.1,2501.8,200.1,68.8
0.075671,800.6,122.3,1685.0,112.2,2450.3,254.1,741.3,1670.8,2515.4,200.3,69.2
0.077671,796.6,113.1,1694.2,117.9,2470.8,220.8,733.3,1679.3,2529.2,200.5,69.6
0.079671,792.1,108.1,1698.4,119.8,2491.4,187.2,725.1,1688.5,2543.2,200.8,69.7
0.081671,787.4,108.0,1700.0,119.5,2513.4,158.8,716.8,1698.4,2557.5,201,69.8
0.083671,783.1,115.4,1701.7,120.7,2537.7,140.5,708.2,1709.2,2571.9,201.3,69.7
0.085671,777.9,133.7,1704.1,127.6,2565.0,130.6,699.5,1720.7,2586.5,201.5,69.6
0.087671,769.4,164.2,1705.4,139.2,2591.7,124.8,690.7,1733,2601.1,201.8,69.4
0.089671,753.4,207.5,1705.6,150.2,2615.9,118.3,681.7,1746.1,2615.9,202,69.2
0.091671,727.8,243.7,1707.1,152.7,2633.4,109.7,672.7,1760,2630.8,202.3,69.1
0.093671,696.5,240.3,1715.3,144.0,2645.1,100.4,663.5,1774.7,2645.6,202.5,69.1
0.095671,670.0,198.3,1732.8,130.2,2653.0,95.0,654.3,1790.2,2660.5,202.8,69.2
0.097671,649.6,146.8,1761.3,117.1,2660.3,97.1,644.9,1806.4,2675.4,203,69.5
0.099671,635.2,109.1,1796.1,110.1,2671.2,107.7,635.6,1823.5,2690.2,203.2,69.7
0.101671,625.0,86.4,1832.2,111.9,2687.9,122.9,626.2,1841.3,2704.9,203.4,70
0.103671,617.6,73.5,1865.7,121.8,2704.5,136.9,616.8,1859.8,2719.5,203.6,70.3
0.105671,611.3,65.6,1898.4,138.1,2718.9,152.1,607.3,1879,2733.9,203.8,70.6
0.107671,605.1,61.7,1925.9,155.1,2731.5,171.0,597.9,1898.9,2748.2,203.9,70.7
0.109671,597.8,60.0,1945.3,168.5,2740.3,192.7,588.6,1919.5,2762.3,204.1,70.8
0.111671,589.0,60.4,1961.3,181.0,2744.8,211.2,579.2,1940.6,2776.2,204.2,70.8
0.113671,577.0,63.8,1983.4,198.7,2750.5,226.0,569.9,1962.3,2789.9,204.3,70.7
0.115671,561.4,69.9,2013.6,217.5,2764.3,243.2,560.8,1984.5,2803.3,204.4,70.6
0.117671,543.1,76.9,2044.7,223.2,2789.8,268.1,551.7,2007.2,2816.3,204.4,70.5
0.119671,520.7,84.1,2069.1,209.8,2830.6,299.5,542.7,2030.3,2829.1,204.4,70.3
0.121671,497.0,88.6,2082.7,191.3,2878.5,325.6,533.8,2053.8,2841.6,204.4,70.3
0.123671,475.8,87.2,2095.5,185.3,2917.5,340.2,525.1,2077.5,2853.7,204.4,70.5
0.125671,460.2,80.8,2117.7,191.4,2940.1,355.8,516.5,2101.5,2865.4,204.4,70.8
0.127671,448.0,71.2,2154.0,197.3,2957.0,390.3,508.1,2125.6,2876.8,204.4,71.1
0.129671,438.1,60.4,2194.6,192.4,2974.7,434.9,499.9,2149.9,2887.7,204.3,71.6
0.131671,429.5,49.2,2227.8,180.0,2989.1,452.0,491.9,2174.2,2898.2,204.2,72.1
0.133671,422.5,38.9,2248.7,169.7,2991.9,421.2,484.1,2198.6,2908.3,204.1,72.5
0.135671,416.7,29.7,2261.8,164.6,2987.0,363.8,476.6,2222.8,2918,204,73
0.137671,412.5,23.1,2271.0,166.6,2981.2,317.1,469.2,2246.9,2927.2,203.9,73.4
0.139671,409.5,18.8,2280.0,179.3,2976.4,293.9,462.1,2270.7,2935.9,203.8,73.8
0.141671,407.1,16.2,2288.9,207.5,2971.9,286.1,455.3,2294.3,2944.1,203.7,74.1
0.143671,404.9,14.5,2296.5,261.5,2965.4,282.5,448.7,2317.6,2951.9,203.6,74.4
0.145671,402.8,13.2,2301.5,340.4,2955.4,286.3,442.5,2340.4,2959.2,203.5,74.5
0.147671,400.8,12.2,2310.8,414.7,2939.7,292.3,436.4,2362.8,2966,203.4,74.6
0.149671,399.2,11.4,2336.0,442.1,2925.5,291.7,430.7,2384.6,2972.3,203.4,74.6
0.151671,398.2,10.5,2379.4,420.8,2924.9,295.7,425.3,2405.9,2978.2,203.3,74.6
0.153671,397.9,9.9,2425.5,364.7,2948.1,295.4,420.2,2426.5,2983.5,203.2,74.4
0.155671,398.1,9.6,2458.7,309.9,2980.2,275.8,415.4,2446.4,2988.4,203.2,74.1
0.157671,398.4,9.6,2483.4,270.1,3003.4,248.6,410.9,2465.6,2992.8,203.1,73.7
0.159671,398.8,10.1,2502.9,241.9,3009.7,226.9,406.7,2484,2996.7,203.1,73.2
0.161671,399.6,10.6,2519.0,219.4,3000.0,208.5,402.9,2501.5,3000.1,203.1,72.6
0.163671,401.4,11.4,2531.1,195.2,2984.1,183.4,399.3,2518.2,3003.1,203.1,71.9
0.165671,404.7,12.7,2540.5,163.3,2972.9,149.4,396,2534,3005.6,203.1,71.1
0.167671,409.1,14.3,2547.8,137.5,2970.8,124.0,393.1,2548.8,3007.7,203.1,70.3
0.169671,413.3,16.2,2554.5,124.2,2976.3,112.5,390.5,2562.8,3009.4,203.1,69.5
0.171671,415.5,18.4,2562.4,118.8,2987.8,109.1,388.2,2575.7,3010.6,203.1,68.9
0.173671,414.9,20.5,2573.2,117.8,3003.7,110.0,386.1,2587.6,3011.5,203.1,68.5
0.175671,412.6,21.5,2585.6,120.8,3019.4,115.8,384.4,2598.6,3012,203.2,68.3
0.177671,410.1,21.6,2598.0,125.1,3031.3,124.7,382.9,2608.5,3012.1,203.2,68.2
0.179671,408.1,21.5,2607.5,126.6,3036.5,131.7,381.8,2617.5,3011.9,203.2,68.3
0.181671,406.5,22.1,2613.8,125.6,3035.9,135.3,380.9,2625.5,3011.3,203.3,68.3
0.183671,405.5,23.3,2619.1,124.3,3033.1,137.4,380.2,2632.4,3010.5,203.3,68.2
0.185671,405.2,24.6,2626.3,125.0,3030.1,142.9,379.8,2638.4,3009.3,203.3,68.2
0.187671,405.6,25.7,2636.9,131.3,3024.1,159.8,379.7,2643.5,3007.9,203.4,68.1
0.189671,406.3,27.0,2649.6,149.1,3010.9,196.0,379.7,2647.6,3006.3,203.4,68
0.191671,406.7,29.1,2663.6,180.2,2989.2,251.8,380,2650.9,3004.4,203.4,67.9
0.193671,406.3,31.4,2677.1,214.2,2964.2,308.9,380.5,2653.2,3002.3,203.4,67.9
0.195671,405.3,32.9,2688.1,241.8,2943.1,355.4,381.1,2654.8,3000.1,203.4,67.9
0.197671,404.2,32.5,2690.1,254.1,2939.6,378.4,382,2655.6,2997.7,203.5,68
0.199671,403.5,31.3,2677.1,252.6,2960.2,362.7,382.9,2655.6,2995.2,203.5,68
0.201671,403.7,30.6,2655.4,241.8,2988.2,314.8,384.1,2654.9,2992.5,203.5,68
0.203671,404.5,31.2,2635.6,229.8,3005.5,267.3,385.3,2653.6,2989.8,203.5,67.9
0.205671,405.6,32.9,2623.4,231.8,3007.3,246.1,386.7,2651.7,2987,203.5,67.8
0.207671,406.5,34.6,2613.5,258.9,2998.0,250.3,388.1,2649.3,2984.2,203.5,67.7
0.209671,407.3,36.3,2601.3,311.7,2982.5,270.2,389.7,2646.5,2981.3,203.5,67.6
0.211671,408.3,39.2,2586.6,372.9,2967.1,295.2,391.3,2643.2,2978.4,203.5,67.6
0.213671,409.2,44.4,2582.2,398.5,2960.4,322.8,392.9,2639.5,2975.6,203.5,67.6
0.215671,409.6,50.6,2590.1,383.8,2958.4,358.0,394.6,2635.6,2972.8,203.5,67.6
0.217671,408.8,54.9,2599.5,357.5,2951.0,398.1,396.3,2631.5,2970,203.5,67.7
0.219671,407.4,55.7,2606.0,341.1,2928.7,430.9,398,2627.1,2967.3,203.5,67.8
0.221671,406.2,52.8,2600.6,346.5,2905.4,397.8,399.7,2622.7,2964.8,203.5,67.9
0.223671,405.6,48.3,2579.5,342.6,2912.9,309.5,401.3,2618.2,2962.3,203.5,68
0.225671,404.9,43.4,2564.3,311.5,2935.8,233.2,402.9,2613.8,2959.9,203.5,68.1
0.227671,403.8,39.6,2566.1,269.7,2958.4,189.4,404.5,2609.4,2957.7,203.5,68.2
0.229671,402.2,37.1,2580.1,229.0,2979.2,169.2,406,2605.2,2955.6,203.5,68.2
0.231671,400.7,35.7,2596.1,200.6,2995.2,164.9,407.4,2601.1,2953.6,203.4,68.2
0.233671,399.9,35.3,2608.8,188.9,3002.0,172.9,408.7,2597.3,2951.9,203.4,68.2
0.235671,400.3,36.0,2615.1,196.2,2992.9,187.5,410,2593.7,2950.3,203.4,68.2
0.237671,401.6,38.0,2615.5,217.3,2969.8,195.2,411.1,2590.5,2948.8,203.4,68.2
0.239671,402.8,40.6,2612.2,242.0,2946.7,189.5,412.1,2587.6,2947.6,203.3,68.2
0.241671,403.3,43.0,2608.7,265.8,2930.9,180.0,413,2585.2,2946.6,203.3,68.2
0.243671,402.9,43.9,2608.4,290.9,2922.8,180.7,413.7,2583.1,2945.7,203.2,68.1
0.245671,402.2,42.8,2613.8,323.2,2919.7,200.0,414.3,2581.6,2945,203.1,68.1
0.247671,401.5,40.8,2624.1,352.6,2922.9,238.0,414.8,2580.5,2944.6,203.1,68
0.249671,400.5,39.2,2634.0,370.4,2934.8,286.4,415.1,2579.9,2944.3,203,67.8
0.251671,399.3,38.7,2640.7,389.1,2946.1,326.2,415.3,2579.9,2944.2,202.9,67.7
0.253671,398.4,39.2,2648.0,407.7,2949.9,346.1,415.3,2580.3,2944.2,202.8,67.6
0.255671,398.4,39.5,2647.6,397.4,2946.9,327.3,415.2,2581.4,2944.5,202.6,67.5
0.257671,399.1,38.0,2641.8,333.7,2947.6,286.9,414.9,2582.9,2944.9,202.5,67.4
0.259671,400.0,34.8,2640.6,242.6,2961.2,242.1,414.5,2585,2945.5,202.4,67.3
0.261671,400.1,31.9,2643.3,180.7,2973.2,206.4,413.9,2587.6,2946.2,202.3,67.3
0.263671,399.3,30.2,2647.0,146.1,2980.6,187.2,413.2,2590.7,2947.1,202.1,67.3
0.265671,397.6,29.3,2648.1,128.1,2984.3,179.6,412.4,2594.2,2948.1,202,67.3
0.267671,395.5,28.1,2643.9,117.2,2983.3,170.1,411.4,2598.3,2949.2,201.8,67.2
0.269671,393.8,26.1,2635.9,107.3,2980.0,150.4,410.3,2602.7,2950.4,201.6,67.1
0.271671,393.0,23.8,2628.8,94.6,2979.7,123.0,409,2607.6,2951.7,201.5,67.1
0.273671,392.8,22.5,2626.0,82.1,2984.0,97.9,407.7,2612.8,2953.1,201.3,66.9
0.275671,392.4,23.0,2625.3,73.2,2989.4,79.8,406.2,2618.3,2954.5,201.1,66.8
0.277671,391.8,24.6,2623.6,69.7,2992.3,70.3,404.7,2624.1,2956,200.9,66.6
0.279671,391.2,26.6,2620.1,70.9,2992.3,67.7,403,2630.1,2957.5,200.8,66.4
0.281671,390.8,27.9,2616.4,75.9,2990.0,71.2,401.3,2636.3,2959,200.6,66.2
0.283671,390.4,28.6,2614.8,83.9,2985.9,78.7,399.5,2642.6,2960.5,200.4,65.9
0.285671,390.0,28.8,2615.9,94.8,2981.2,88.9,397.7,2649,2962,200.2,65.6
0.287671,389.5,28.7,2619.4,112.2,2977.0,104.1,395.8,2655.3,2963.4,200.1,65.3
0.289671,388.8,28.7,2624.6,139.4,2975.5,128.0,393.9,2661.7,2964.7,199.9,65
0.291671,387.7,29.1,2629.3,178.6,2976.9,159.2,391.9,2667.9,2966,199.7,64.8
0.293671,386.6,29.6,2630.0,227.0,2978.6,181.6,390,2673.9,2967.1,199.5,64.6
0.295671,385.9,29.6,2624.9,253.3,2978.1,173.9,388,2679.7,2968.2,199.4,64.3
0.297671,385.6,29.1,2619.6,246.1,2976.4,156.0,386.1,2685.1,2969.1,199.2,64.2
0.299671,385.3,29.1,2617.2,230.4,2974.1,147.6,384.2,2690.3,2969.9,199,64
0.301671,384.6,30.6,2619.5,218.2,2970.4,154.6,382.3,2695,2970.5,198.9,63.8
0.303671,383.4,33.0,2629.4,212.7,2964.3,183.1,380.5,2699.2,2970.9,198.7,63.6
0.305671,382.2,34.0,2646.9,212.0,2955.3,235.1,378.8,2702.9,2971.2,198.5,63.4
0.307671,382.3,33.0,2665.2,210.4,2945.1,295.0,377.1,2706,2971.2,198.4,63.2
0.309671,384.4,31.7,2679.6,212.1,2930.3,342.3,375.5,2708.5,2971.1,198.2,63
0.311671,387.3,32.6,2690.1,232.2,2902.1,355.0,374,2710.3,2970.7,198,62.8
0.313671,388.9,36.5,2702.2,291.5,2855.6,323.0,372.6,2711.4,2970.1,197.8,62.7
0.315671,388.2,41.1,2698.3,403.9,2821.8,241.3,371.3,2711.7,2969.2,197.6,62.6
0.317671,385.4,44.0,2689.3,475.1,2810.9,208.7,370.1,2711.2,2968.1,197.4,62.6
0.319671,382.1,43.3,2745.6,504.8,2782.1,235.2,369,2709.9,2966.7,197.2,62.6
0.321671,379.7,39.7,2737.2,196.5,2872.2,608.6,368.1,2707.7,2965.1,197,62.6
0.323671,378.3,35.7,2722.7,156.6,2984.5,626.8,367.3,2704.6,2963.2,196.7,62.6
0.325671,376.9,33.5,2711.8,135.5,3037.8,514.9,366.6,2700.6,2961.1,196.5,62.7
0.327671,375.8,35.1,2697.2,132.3,3030.6,392.2,366.1,2695.7,2958.7,196.2,62.7
0.329671,375.5,39.9,2680.2,141.8,3007.3,307.8,365.8,2689.9,2956,195.9,62.8
0.331671,376.1,46.7,2668.8,159.7,2991.4,263.1,365.6,2683.1,2953.1,195.6,62.8
0.333671,378.0,52.8,2670.1,190.1,2985.7,260.4,365.5,2675.4,2950,195.3,62.9
0.335671,381.1,55.5,2676.5,248.5,2970.2,284.2,365.6,2666.9,2946.6,195,62.9
0.337671,384.5,53.3,2656.1,330.3,2935.8,251.0,365.8,2657.4,2942.9,194.6,63.1
0.339671,386.3,45.9,2612.0,336.4,2934.1,173.2,366.2,2647,2939.1,194.2,63.2
0.341671,385.9,37.2,2590.6,301.0,2944.0,127.8,366.8,2635.8,2935,193.8,63.4
0.343671,384.6,32.0,2583.0,268.3,2950.0,105.5,367.5,2623.8,2930.7,193.3,63.6
0.345671,383.3,30.8,2584.9,252.5,2951.0,99.4,368.3,2611,2926.2,192.8,63.9
0.347671,382.5,31.4,2595.0,263.0,2946.5,105.4,369.2,2597.5,2921.5,192.3,64.1
0.349671,382.4,31.8,2611.0,308.8,2934.0,119.3,370.3,2583.3,2916.7,191.8,64.3
0.351671,382.8,30.8,2624.5,398.3,2913.7,130.2,371.5,2568.4,2911.7,191.3,64.5
0.353671,383.1,28.9,2615.7,513.6,2895.3,128.3,372.8,2552.9,2906.6,190.7,64.7
0.355671,383.3,26.9,2578.3,610.9,2883.9,127.1,374.3,2537,2901.4,190.1,64.9
0.357671,383.5,25.4,2545.1,656.7,2876.4,139.6,375.8,2520.5,2896.1,189.5,65.2
0.359671,383.6,24.0,2537.5,657.9,2874.8,162.9,377.4,2503.7,2890.7,188.9,65.5
0.361671,383.1,22.5,2543.1,608.9,2886.4,186.7,379.1,2486.5,2885.2,188.2,65.9
0.363671,381.5,20.6,2539.0,522.5,2909.0,201.3,380.8,2469.1,2879.7,187.5,66.3
0.365671,379.1,19.1,2519.6,439.9,2927.6,204.3,382.6,2451.6,2874.2,186.8,66.7
0.367671,376.5,18.5,2495.7,382.1,2934.4,205.4,384.5,2433.9,2868.7,186.1,67.2
0.369671,373.9,18.6,2472.7,349.6,2930.9,210.8,386.4,2416.2,2863.3,185.4,67.7
0.371671,371.7,19.4,2455.1,349.3,2920.2,221.5,388.3,2398.6,2857.9,184.7,68.2
0.373671,370.1,20.8,2439.7,386.2,2904.1,231.9,390.2,2381.1,2852.5,184,68.6
0.375671,368.9,22.8,2416.7,455.5,2882.2,228.6,392.2,2363.8,2847.3,183.3,69.1
0.377671,367.8,24.8,2376.0,527.8,2859.1,205.5,394.1,2346.9,2842.2,182.7,69.4
0.379671,366.5,26.1,2339.7,548.2,2846.2,183.0,396,2330.3,2837.2,182,69.8
0.381671,365.2,27.1,2327.0,515.2,2844.2,172.9,397.8,2314.2,2832.4,181.3,70
0.383671,363.8,28.2,2323.4,454.7,2846.6,167.2,399.6,2298.6,2827.7,180.7,70.2
0.385671,362.6,29.7,2313.6,382.9,2846.2,160.8,401.4,2283.7,2823.3,180.1,70.3
0.387671,361.6,31.7,2299.5,318.7,2839.9,158.3,403,2269.4,2819.1,179.5,70.2
0.389671,361.2,34.8,2287.6,271.8,2831.5,158.7,404.6,2255.9,2815.1,178.9,70.1
0.391671,361.8,39.2,2278.2,241.9,2827.8,152.7,406.1,2243.2,2811.3,178.4,69.8
0.393671,363.8,46.8,2266.5,222.1,2828.6,138.1,407.5,2231.4,2807.9,177.9,69.4
0.395671,368.2,60.4,2250.3,213.6,2827.8,127.1,408.8,2220.5,2804.7,177.5,68.9
0.397671,377.1,82.5,2228.9,215.2,2822.2,128.4,410,2210.7,2801.8,177.1,68.3
0.399671,391.3,108.0,2204.9,219.4,2812.5,140.6,411.1,2201.8,2799.2,176.7,67.8
0.401671,410.5,124.7,2177.3,219.6,2796.4,160.3,412,2194.1,2796.9,176.4,67.3
0.403671,430.6,120.8,2145.9,215.7,2772.9,181.8,412.8,2187.5,2795,176.1,67
0.405671,448.6,105.7,2112.4,207.2,2746.2,195.6,413.5,2182,2793.4,175.8,66.8
0.407671,464.5,89.2,2078.9,191.3,2720.8,198.2,414,2177.7,2792.2,175.6,66.7
0.409671,477.3,77.1,2053.6,170.7,2706.5,192.5,414.4,2174.7,2791.3,175.4,66.7
0.411671,488.3,69.5,2036.8,149.9,2703.2,183.1,414.6,2172.8,2790.8,175.3,66.7
0.413671,497.8,64.6,2024.2,133.1,2701.3,170.8,414.7,2172.2,2790.6,175.2,66.7
