time,f1,b1,f2,b2,f3,b3,f1p,f2p,f3p,f0,intensity
0.025785,668.9,1112.6,1539.4,152.3,3017.2,441.1,696,1491,2909.8,166.2,64.3
0.027785,697.7,1024.2,1512.5,170.1,2999.3,572.1,692.6,1489,2893.3,165.5,64.8
0.029785,700.2,887.1,1475.3,174.3,2931.2,774.2,687,1485.8,2866.5,164.9,65.2
0.031785,687.6,745.1,1450.1,158.1,2772.5,755.9,679.8,1481.3,2830.4,164.2,65.6
0.033785,673.2,617.1,1443.1,138.7,2683.7,650.0,671.2,1475.7,2786.3,163.5,65.9
0.035785,659.5,513.4,1446.3,127.7,2627.1,609.2,662,1469,2735.7,162.7,66.2
0.037785,648.9,453.5,1451.2,129.2,2598.8,649.7,652.6,1461.3,2680.6,162,66.4
0.039785,641.0,430.2,1454.5,137.6,2591.1,761.5,643.6,1452.9,2622.7,161.2,66.7
0.041785,634.9,425.7,1453.7,142.1,2574.4,904.2,635.6,1443.7,2564,160.4,67
0.043785,629.7,421.7,1446.5,137.2,2517.1,996.8,629.2,1434,2506.5,159.5,67.3
0.045785,626.5,424.9,1433.5,131.1,2454.4,1081.6,624.7,1423.9,2451.8,158.7,67.7
0.047785,628.4,448.1,1419.1,131.4,2423.0,1257.9,622.4,1413.7,2401.5,157.9,68
0.049785,633.7,475.1,1405.7,135.6,2395.2,1442.5,622.6,1403.5,2356.9,157,68.2
0.051785,635.0,475.5,1393.6,139.7,2345.9,1360.8,625.2,1393.4,2319.1,156.2,68.4
0.053785,631.8,443.1,1384.1,141.9,2290.0,1082.9,630.2,1383.8,2288.6,155.3,68.6
0.055785,631.4,390.9,1376.7,140.4,2249.7,819.3,637.3,1374.8,2265.7,154.5,68.7
0.057785,637.8,330.8,1369.5,134.8,2235.7,605.1,646.2,1366.5,2250.5,153.7,68.7
0.059785,649.6,280.8,1360.7,130.6,2241.5,453.6,656.5,1359.1,2242.5,152.8,68.8
0.061785,663.9,240.9,1349.6,129.4,2251.1,355.1,667.6,1352.8,2241.2,152,68.8
0.063785,677.5,205.3,1340.0,125.3,2259.2,297.2,679.1,1347.6,2245.6,151.3,68.7
0.065785,689.1,177.1,1335.3,116.8,2270.0,266.3,690.4,1343.7,2254.8,150.5,68.7
0.067785,700.4,158.0,1333.8,108.1,2285.4,249.6,701,1341,2267.5,149.8,68.7
0.069785,710.5,146.6,1335.5,101.7,2300.5,241.9,710.5,1339.7,2282.6,149,68.7
0.071785,717.5,140.1,1341.0,98.7,2311.0,236.7,718.6,1339.7,2298.9,148.4,68.7
0.073785,723.3,135.4,1348.1,100.7,2318.7,229.5,725,1341,2315.3,147.7,68.9
0.075785,729.0,134.0,1353.5,108.4,2323.9,224.7,729.6,1343.6,2330.7,147.1,69.1
0.077785,733.9,136.8,1356.0,118.5,2329.1,224.8,732.4,1347.2,2344.5,146.5,69.5
0.079785,736.1,142.4,1355.5,126.2,2336.2,225.4,733.5,1351.9,2355.8,145.9,69.9
0.081785,735.5,144.7,1355.0,126.7,2342.7,219.3,733,1357.5,2364.4,145.4,70.2
0.083785,733.3,141.9,1358.3,121.8,2347.4,211.2,731.4,1363.9,2370.1,144.9,70.5
0.085785,729.5,136.7,1366.0,116.3,2352.6,210.2,728.8,1370.9,2372.7,144.4,70.8
0.087785,724.3,132.0,1375.2,114.2,2358.4,220.5,725.6,1378.4,2372.6,144,71
0.089785,720.3,127.8,1384.9,114.3,2363.7,241.5,722.2,1386.4,2370.2,143.6,71.1
0.091785,719.4,125.5,1397.0,113.6,2368.1,274.4,718.9,1394.5,2365.8,143.3,71.1
0.093785,720.0,128.0,1409.9,114.7,2371.1,322.7,715.9,1402.9,2360.2,142.9,71.1
0.095785,720.1,134.4,1420.0,121.7,2370.4,389.7,713.4,1411.3,2353.9,142.6,71.1
0.097785,719.0,138.1,1423.6,132.3,2362.0,445.7,711.5,1419.8,2347.6,142.4,71.1
0.099785,715.8,134.1,1421.8,137.9,2351.9,449.3,710.2,1428.2,2341.8,142.2,71
0.101785,709.8,126.3,1420.1,138.5,2344.0,440.8,709.4,1436.6,2337.3,141.9,70.8
0.103785,704.1,120.7,1424.3,140.5,2337.2,482.2,709,1444.9,2334.3,141.8,70.7
0.105785,701.8,117.6,1438.6,144.2,2329.6,583.1,708.7,1453.2,2333.3,141.6,70.6
0.107785,701.7,115.1,1462.8,142.8,2329.9,691.6,708.2,1461.3,2334.6,141.5,70.5
0.109785,701.1,113.8,1486.5,134.6,2356.1,759.8,707.3,1469.4,2338.2,141.3,70.5
0.111785,700.2,112.8,1502.6,123.4,2401.9,820.4,705.6,1477.5,2344.2,141.2,70.4
0.113785,698.4,107.5,1508.8,112.9,2417.3,911.7,702.8,1485.5,2352.4,141.2,70.4
0.115785,693.2,97.9,1507.6,106.9,2355.9,966.7,698.7,1493.4,2362.6,141.1,70.3
0.117785,685.7,87.6,1503.6,103.0,2315.8,845.6,693.2,1501.3,2374.5,141,70.2
0.119785,679.1,79.4,1500.8,98.1,2334.0,672.6,686.2,1509.1,2387.7,140.9,70.2
0.121785,674.9,75.1,1501.1,94.8,2360.8,578.6,677.7,1516.7,2401.9,140.9,70.1
0.123785,670.5,75.6,1505.1,95.9,2387.2,581.3,668,1524.1,2416.7,140.8,70
0.125785,664.9,80.7,1514.9,100.5,2416.6,698.3,657.3,1531.2,2431.5,140.8,69.9
0.127785,659.9,87.3,1528.7,105.0,2442.5,931.0,645.9,1538,2446,140.7,69.7
0.129785,653.9,94.8,1544.3,110.4,2441.4,1242.8,634.3,1544.2,2459.8,140.7,69.5
0.131785,645.4,102.9,1556.6,118.7,2453.3,1434.6,622.9,1549.9,2472.4,140.7,69.3
0.133785,634.6,109.7,1563.2,127.7,2509.0,1450.8,612.1,1555,2483.7,140.6,68.9
0.135785,622.3,116.7,1564.8,133.2,2628.5,1165.2,602.6,1559.3,2493.3,140.6,68.6
0.137785,606.4,129.5,1564.5,134.7,2557.6,842.0,594.6,1562.7,2501,140.5,68.1
0.139785,583.8,150.6,1565.0,131.2,2508.1,653.4,588.7,1565.2,2506.6,140.5,67.6
0.141785,557.3,172.2,1567.4,120.8,2468.6,509.4,585,1566.7,2510,140.4,67.1
0.143785,531.5,182.8,1570.2,112.0,2445.4,418.0,583.7,1567.2,2511.2,140.4,66.5
