time,f1,b1,f2,b2,f3,b3,f1p,f2p,f3p,f0,intensity
0.025526,369.0,95.8,1438.5,587.9,2697.5,604.2,357.9,1444,2746.2,166.6,72.8
0.027526,365.3,82.1,1467.3,535.5,2752.1,460.8,357.8,1447.9,2743.8,166.5,73
0.029526,363.1,78.6,1483.9,458.9,2774.3,325.8,357.7,1454.4,2739.8,166.4,73.1
0.031526,362.1,79.9,1504.6,391.6,2772.7,254.7,357.5,1463.4,2734.6,166.3,73.3
0.033526,361.0,79.4,1523.5,351.4,2758.6,233.2,357.2,1474.6,2728.1,166.2,73.4
0.035526,358.8,74.3,1532.4,330.4,2734.6,231.7,356.8,1488,2720.8,166.1,73.6
0.037526,355.9,65.7,1526.6,316.3,2705.5,222.4,356.3,1503.3,2712.8,166,73.7
0.039526,352.8,56.3,1511.4,295.3,2682.0,194.2,355.6,1520.3,2704.4,165.9,73.9
0.041526,349.3,46.8,1495.4,263.4,2668.4,156.5,354.9,1538.8,2696,165.8,74
0.043526,346.3,39.3,1488.5,240.1,2664.7,127.0,353.9,1558.4,2687.9,165.7,74.2
0.045526,344.3,35.5,1493.1,248.9,2665.8,113.3,352.8,1578.9,2680.4,165.6,74.3
0.047526,343.1,34.8,1510.5,299.9,2667.2,116.3,351.5,1600,2673.7,165.5,74.4
0.049526,342.5,35.4,1551.1,392.1,2666.7,136.1,350,1621.4,2668.2,165.4,74.5
0.051526,342.1,35.8,1615.0,477.7,2664.5,166.0,348.4,1642.9,2664.1,165.3,74.6
0.053526,341.5,35.6,1678.5,513.0,2663.2,187.2,346.6,1664,2661.5,165.2,74.8
0.055526,340.9,34.9,1718.2,514.2,2663.3,189.1,344.6,1684.6,2660.7,165.1,74.9
0.057526,340.1,33.1,1738.7,508.3,2663.4,176.9,342.6,1704.5,2661.5,165.1,75
0.059526,338.9,31.0,1750.1,505.5,2664.1,159.5,340.5,1723.3,2664.2,165,75.1
0.061526,337.4,29.0,1761.4,509.3,2666.8,142.8,338.4,1741,2668.6,165,75.3
0.063526,336.1,27.9,1776.2,528.8,2673.4,129.8,336.4,1757.4,2674.6,164.9,75.4
0.065526,335.1,27.8,1798.1,570.6,2684.0,120.6,334.3,1772.4,2682.1,164.9,75.5
0.067526,334.7,27.7,1825.1,613.1,2695.3,117.0,332.4,1785.9,2690.9,164.9,75.6
0.069526,334.6,26.9,1847.4,630.0,2705.5,118.0,330.7,1797.8,2700.9,164.9,75.7
0.071526,334.1,25.3,1854.9,624.4,2716.4,120.0,329.2,1808.3,2711.6,164.9,75.8
0.073526,333.5,23.5,1846.4,613.8,2728.7,117.6,327.9,1817.3,2722.9,164.9,75.8
0.075526,333.0,21.6,1832.6,611.7,2743.8,108.1,326.9,1825,2734.5,164.9,75.9
0.077526,332.4,20.2,1818.9,616.6,2759.7,93.9,326.2,1831.5,2746.1,164.9,75.9
0.079526,331.6,19.3,1800.8,621.8,2774.1,78.5,325.9,1836.9,2757.4,164.9,75.9
0.081526,330.9,19.2,1782.9,628.3,2783.0,67.0,325.8,1841.4,2768.1,165,75.9
0.083526,330.5,19.9,1780.1,644.9,2786.1,61.9,326,1845.3,2778.2,165,75.9
0.085526,330.5,20.7,1794.6,670.1,2785.6,61.4,326.6,1848.8,2787.3,165,75.9
0.087526,330.7,21.1,1814.3,704.5,2783.2,62.7,327.4,1852.1,2795.3,165.1,75.9
0.089526,330.7,20.9,1834.5,762.5,2780.1,66.2,328.4,1855.4,2802.2,165.2,75.9
0.091526,330.4,20.5,1866.2,852.9,2778.0,75.5,329.6,1859.1,2807.9,165.2,75.9
0.093526,330.2,19.9,1909.3,935.5,2780.9,92.3,330.9,1863.3,2812.4,165.3,75.9
0.095526,330.2,19.0,1937.8,935.1,2793.6,111.8,332.3,1868.3,2815.7,165.4,75.9
0.097526,330.4,17.9,1925.3,827.2,2813.8,120.9,333.7,1874.2,2818,165.4,75.9
0.099526,330.7,16.3,1894.2,705.1,2830.7,125.7,335,1881.3,2819.3,165.5,75.9
0.101526,331.1,14.8,1876.0,647.2,2837.2,140.7,336.1,1889.6,2819.9,165.6,75.9
0.103526,331.4,13.6,1885.9,666.5,2834.1,156.7,337.1,1899.2,2819.9,165.6,75.8
0.105526,331.5,12.8,1923.8,747.0,2831.0,152.8,337.8,1910.1,2819.6,165.7,75.8
0.107526,331.3,12.0,1966.5,846.9,2832.9,140.1,338.3,1922.5,2819,165.7,75.8
0.109526,330.9,11.6,1986.4,926.9,2835.6,127.5,338.4,1936.1,2818.5,165.8,75.7
0.111526,330.7,11.7,1969.4,943.6,2833.8,120.3,338.3,1951,2818.3,165.9,75.7
0.113526,330.9,12.5,1933.6,923.0,2823.9,123.7,337.8,1967,2818.5,165.9,75.6
0.115526,331.4,14.0,1899.4,907.5,2809.1,136.8,337,1983.9,2819.2,166,75.5
0.117526,332.4,15.8,1888.4,897.8,2797.6,159.6,335.9,2001.6,2820.6,166,75.5
0.119526,333.5,17.6,1930.3,896.5,2797.4,188.4,334.7,2019.7,2822.7,166.1,75.5
0.121526,334.6,18.5,2013.4,890.7,2807.8,204.5,333.2,2037.9,2825.7,166.1,75.5
0.123526,335.3,18.1,2089.2,863.9,2822.1,199.1,331.7,2056.1,2829.4,166.1,75.5
0.125526,335.7,16.9,2131.9,838.6,2836.8,181.3,330.2,2073.9,2833.9,166.1,75.5
0.127526,335.5,15.8,2132.3,857.3,2849.0,164.6,328.8,2090.9,2839.1,166.2,75.5
0.129526,335.2,15.7,2112.9,924.3,2859.1,161.7,327.6,2107,2844.9,166.2,75.5
0.131526,334.9,16.1,2115.7,983.4,2867.3,182.3,326.7,2121.7,2851,166.2,75.5
0.133526,334.8,16.6,2146.4,977.0,2873.9,221.4,326.1,2134.8,2857.4,166.2,75.5
0.135526,335.1,17.0,2165.6,918.4,2878.8,248.4,326.1,2146.2,2863.9,166.2,75.5
0.137526,335.7,17.6,2173.7,851.2,2879.9,256.0,326.6,2155.6,2870.3,166.2,75.5
0.139526,336.5,18.5,2191.3,772.6,2878.2,259.6,327.8,2162.8,2876.4,166.2,75.5
0.141526,337.7,19.6,2213.2,680.6,2877.5,265.4,329.6,2167.7,2882,166.2,75.5
0.143526,339.1,21.3,2220.3,619.0,2878.2,271.3,332.2,2170.3,2886.9,166.2,75.4
0.145526,340.6,23.3,2212.4,610.2,2878.4,275.2,335.5,2170.5,2891,166.2,75.4
0.147526,342.3,26.1,2197.1,653.4,2878.5,271.5,339.5,2168.5,2894.3,166.2,75.3
0.149526,343.9,30.7,2181.2,732.4,2879.5,253.2,344.2,2164.3,2896.5,166.2,75.2
0.151526,345.8,37.5,2159.8,780.4,2881.3,224.1,349.6,2158.1,2897.7,166.2,75.1
0.153526,348.0,45.0,2118.2,745.4,2880.2,199.4,355.6,2150.1,2897.9,166.2,74.9
0.155526,351.0,53.1,2073.0,673.9,2878.5,189.2,362,2140.5,2897.1,166.1,74.7
0.157526,354.7,61.5,2053.2,634.7,2886.6,192.8,368.8,2129.7,2895.4,166.1,74.5
0.159526,359.0,68.3,2047.3,637.7,2903.1,199.8,375.8,2117.9,2892.9,166.1,74.3
0.161526,363.9,72.8,2042.6,646.8,2916.8,206.2,382.9,2105.5,2889.7,166.1,74.1
0.163526,370.1,76.4,2039.4,625.3,2925.2,219.4,389.9,2092.9,2886,166.1,73.9
0.165526,377.5,80.3,2042.5,562.7,2925.1,252.1,396.7,2080.4,2882.1,166.1,73.7
0.167526,386.2,85.6,2051.6,489.5,2908.2,318.5,403.2,2068.4,2877.9,166,73.6
0.169526,395.1,89.7,2059.8,444.5,2870.1,416.6,409.2,2057.2,2873.9,166,73.5
0.171526,405.4,92.0,2069.9,420.9,2835.8,518.2,414.5,2047.1,2870,166,73.4
0.173526,417.8,96.2,2082.7,382.6,2848.5,519.3,419,2038.5,2866.7,166,73.4
0.175526,431.0,101.2,2082.6,339.1,2853.9,445.6,422.6,2031.5,2863.9,166,73.4
0.177526,443.9,101.9,2072.5,331.6,2858.6,448.9,425.3,2026.3,2861.8,166,73.4
0.179526,456.4,98.6,2056.4,358.2,2877.5,580.9,426.9,2023.2,2860.5,166,73.4
0.181526,470.6,98.1,2037.8,362.6,2836.6,694.9,427.4,2022.1,2860,165.9,73.5
