time,f1,b1,f2,b2,f3,b3,f1p,f2p,f3p,f0,intensity
0.024993,234.9,143.3,2117.5,266.9,2623.7,335.7,249.6,2195.1,2755.4,0,69.9
0.026993,245.6,99.9,2145.4,245.8,2681.2,382.4,252,2199.6,2765,201.8,70.1
0.028993,256.2,82.6,2164.6,276.1,2766.0,392.3,255.9,2207,2780.5,201.7,70.3
0.030993,266.8,79.5,2191.3,375.8,2856.3,365.9,261,2217.3,2801.3,201.7,70.4
0.032993,275.2,85.5,2250.0,468.9,2920.9,298.7,267.3,2230.3,2826.4,201.6,70.5
0.034993,282.2,93.3,2304.6,448.8,2943.8,237.1,274.4,2245.9,2854.6,201.6,70.7
0.036993,287.5,94.7,2316.5,424.9,2938.7,229.3,282.1,2263.9,2884.7,201.5,70.8
0.038993,292.0,92.0,2318.7,436.6,2922.8,258.2,290,2284,2915.4,201.4,70.9
0.040993,297.5,91.5,2339.0,428.8,2916.1,314.3,297.9,2305.9,2945.4,201.4,71
0.042993,304.1,96.4,2375.5,345.9,2952.4,367.8,305.4,2329.2,2973.4,201.3,71.1
0.044993,311.2,104.2,2396.9,249.8,3013.3,331.3,312.5,2353.6,2998.3,201.3,71.1
0.046993,318.5,110.5,2411.4,191.1,3046.7,244.7,318.8,2378.5,3019.1,201.2,71.1
0.048993,324.3,111.0,2424.3,167.7,3051.7,189.7,324.3,2403.4,3035.2,201.2,71
0.050993,328.5,106.5,2435.7,163.9,3045.1,164.6,328.9,2427.9,3046,201.2,71
0.052993,331.5,100.0,2444.6,176.7,3035.1,161.0,332.6,2451.5,3051.4,201.2,70.9
0.054993,333.5,94.2,2453.1,203.8,3026.1,175.3,335.4,2473.5,3051.3,201.1,70.9
0.056993,334.8,89.5,2464.0,241.8,3018.2,213.8,337.4,2493.7,3046.1,201.1,70.9
0.058993,335.9,86.5,2473.6,271.0,3011.2,277.6,338.7,2511.6,3036.4,201.1,70.9
0.060993,337.3,84.1,2477.8,276.6,3002.9,364.7,339.6,2526.8,3022.8,201.1,70.9
0.062993,339.2,81.9,2481.3,264.2,2992.8,442.3,340.1,2539.1,3006.3,201.1,71
0.064993,341.4,79.6,2492.9,258.1,2979.5,475.8,340.5,2548.5,2987.9,201.1,71
0.066993,343.4,77.3,2516.5,264.8,2963.3,473.5,340.9,2555,2968.6,201.1,71.1
0.068993,344.2,75.6,2544.0,274.8,2952.3,456.8,341.5,2558.6,2949.5,201.2,71.1
0.070993,343.7,74.6,2567.1,282.8,2948.3,426.6,342.4,2559.6,2931.5,201.2,71.2
0.072993,343.1,74.7,2580.5,296.4,2944.1,386.4,343.7,2558.3,2915.5,201.2,71.2
0.074993,343.9,76.2,2588.9,324.0,2930.2,350.2,345.4,2555.1,2902.2,201.2,71.3
0.076993,347.1,79.2,2596.8,371.1,2900.6,315.1,347.4,2550.4,2892.2,201.2,71.3
0.078993,351.5,82.2,2596.1,418.3,2869.0,268.7,349.9,2544.8,2885.8,201.3,71.4
0.080993,356.0,84.2,2576.6,409.0,2860.4,219.0,352.6,2538.8,2883.2,201.3,71.4
0.082993,359.1,84.5,2556.8,334.5,2879.0,187.5,355.5,2532.7,2884.3,201.4,71.5
0.084993,360.4,82.7,2546.2,264.8,2906.3,164.7,358.5,2526.9,2888.8,201.4,71.6
0.086993,361.0,79.0,2537.4,220.1,2928.5,145.0,361.4,2521.8,2896.4,201.5,71.6
0.088993,362.3,75.3,2526.5,198.4,2937.1,131.7,364.2,2517.5,2906.6,201.5,71.7
0.090993,364.4,72.3,2512.7,187.8,2935.4,123.6,366.8,2514.1,2918.6,201.6,71.8
0.092993,366.7,69.8,2499.2,184.4,2929.6,120.3,369.2,2511.4,2931.7,201.7,71.8
0.094993,368.7,67.1,2490.2,185.1,2928.3,121.5,371.2,2509.3,2945.2,201.8,71.9
0.096993,370.6,63.6,2486.9,185.6,2937.4,126.2,372.8,2507.4,2958.4,201.9,72
0.098993,372.2,58.9,2487.2,181.8,2953.7,130.1,374.3,2505.3,2970.5,202,72.2
0.100993,373.6,52.5,2485.1,173.6,2968.6,130.8,375.5,2502.6,2980.9,202.1,72.3
0.102993,375.4,46.1,2478.3,164.4,2975.0,130.0,376.6,2498.6,2989.2,202.2,72.5
0.104993,377.6,41.4,2468.9,155.8,2974.7,130.3,377.8,2492.9,2995,202.4,72.8
0.106993,380.3,37.9,2458.1,148.3,2972.6,133.9,379.1,2484.9,2997.9,202.6,73
0.108993,383.1,35.1,2447.8,145.1,2973.7,143.1,380.7,2474.2,2997.9,202.8,73.4
0.110993,386.3,32.0,2436.3,147.4,2982.3,159.7,382.7,2460.5,2994.9,203,73.7
0.112993,389.5,28.7,2423.4,152.6,2995.1,178.6,385.1,2443.7,2989.2,203.2,74.2
0.114993,392.9,25.1,2408.6,157.8,3005.2,196.3,388.1,2423.8,2980.9,203.4,74.7
0.116993,395.9,21.4,2395.7,162.4,3006.4,211.0,391.7,2400.9,2970.4,203.6,75.3
0.118993,398.4,18.3,2386.5,168.6,2998.8,222.7,395.8,2375.3,2958.2,203.9,76
0.120993,400.9,15.7,2379.2,180.2,2982.3,230.8,400.5,2347.7,2944.7,204.1,76.7
0.122993,403.5,14.2,2373.2,203.3,2958.2,235.6,405.5,2318.8,2930.3,204.4,77.4
0.124993,406.2,13.6,2368.3,246.1,2929.7,241.4,410.7,2289.2,2915.8,204.7,78.2
0.126993,409.4,13.5,2360.1,326.5,2894.1,248.9,416,2260,2901.5,204.9,78.9
0.128993,412.9,14.1,2329.9,434.2,2855.7,235.0,421.1,2232.1,2887.9,205.2,79.6
0.130993,417.3,15.9,2255.5,498.0,2832.1,183.1,425.9,2206.5,2875.6,205.5,80.2
0.132993,422.7,18.7,2176.2,471.3,2832.0,141.2,430.2,2184.1,2865,205.7,80.6
0.134993,428.9,22.3,2124.7,428.5,2840.7,127.6,433.7,2165.7,2856.3,206,80.9
0.136993,436.5,27.5,2092.9,407.4,2850.8,134.0,436.3,2152.1,2849.9,206.2,81
0.138993,445.6,34.9,2070.7,417.5,2859.4,155.9,438,2143.7,2846,206.4,80.9
0.140993,458.1,46.0,2044.0,447.2,2868.7,197.7,438.5,2140.8,2844.7,206.6,80.7
