time,f1,b1,f2,b2,f3,b3,f1p,f2p,f3p,f0,intensity
0.025333,391.5,127.4,1245.6,175.0,2268.9,211.8,415.1,1210.2,2318.6,154,71.7
0.027333,402.9,119.3,1222.6,197.7,2296.6,202.9,415.3,1204.1,2314.4,154.1,72.3
0.029333,413.5,118.2,1199.9,223.4,2313.4,176.6,415.7,1194.2,2307.5,154.1,72.8
0.031333,421.9,124.4,1177.1,253.9,2321.8,169.0,416.2,1180.8,2298.4,154.1,73.3
0.033333,427.4,133.3,1155.4,277.6,2327.7,176.2,416.9,1164.2,2287.4,154.1,73.7
0.035333,429.2,136.6,1131.3,282.1,2330.6,197.3,417.7,1145.1,2275,154,74.1
0.037333,428.0,128.4,1103.8,262.3,2313.5,238.4,418.7,1123.9,2261.8,154,74.4
0.039333,426.0,110.8,1076.1,222.5,2248.4,253.2,419.7,1101.3,2248.3,154,74.7
0.041333,424.3,92.5,1056.3,183.5,2195.4,179.8,420.9,1078,2235.2,153.9,74.9
0.043333,423.6,79.5,1042.7,163.5,2180.7,110.5,422.1,1054.5,2223.1,153.8,75.1
0.045333,424.4,74.7,1032.7,171.7,2181.7,72.6,423.4,1031.5,2212.4,153.7,75.2
0.047333,425.8,75.3,1021.6,203.1,2185.0,53.3,424.7,1009.5,2203.6,153.6,75.3
0.049333,426.9,77.5,1004.3,234.8,2187.1,42.7,426,988.9,2197.1,153.5,75.3
0.051333,427.3,78.3,981.2,238.6,2187.2,37.2,427.2,970.1,2193,153.4,75.4
0.053333,427.3,77.5,957.9,219.1,2185.6,35.8,428.4,953.3,2191.6,153.2,75.4
0.055333,427.2,77.0,940.9,199.9,2184.1,39.1,429.6,938.9,2192.9,153,75.4
0.057333,428.2,78.1,928.4,191.0,2186.5,46.9,430.5,926.7,2196.7,152.8,75.4
0.059333,429.6,78.6,917.7,186.4,2196.8,57.3,431.4,916.7,2202.9,152.6,75.4
0.061333,429.7,75.6,909.5,178.8,2215.1,64.1,432.1,908.9,2211,152.4,75.3
0.063333,429.1,68.7,903.5,167.1,2239.0,63.2,432.5,903,2220.8,152.1,75.3
0.065333,429.0,61.2,899.2,158.8,2261.1,58.3,432.8,898.7,2231.9,151.8,75.2
0.067333,429.3,55.0,896.1,156.8,2278.2,56.0,432.9,895.7,2243.6,151.5,75.1
0.069333,429.8,50.0,894.7,160.7,2288.9,57.6,432.8,893.7,2255.6,151.2,75.1
0.071333,430.6,46.9,895.2,171.7,2292.0,62.0,432.5,892.4,2267.3,150.9,75
0.073333,431.3,45.4,894.6,189.8,2288.2,67.2,432,891.5,2278.4,150.5,75
0.075333,431.6,44.6,891.7,209.5,2282.3,70.5,431.4,890.6,2288.4,150.2,75.1
0.077333,432.4,43.7,888.2,228.3,2279.4,72.8,430.7,889.5,2297.1,149.8,75.1
0.079333,433.2,43.0,884.9,246.3,2280.3,76.7,429.9,888.2,2304.1,149.4,75.1
0.081333,433.2,42.4,881.4,263.0,2284.8,82.8,429.1,886.3,2309.5,148.9,75.2
0.083333,432.5,42.1,879.1,272.7,2292.0,88.9,428.4,884,2313,148.5,75.2
0.085333,431.5,42.3,877.6,271.9,2300.2,93.9,427.7,881.2,2314.9,148,75.2
0.087333,430.0,42.9,874.7,257.9,2308.3,95.1,427.1,877.9,2315,147.5,75.3
0.089333,428.7,42.6,871.2,229.5,2314.7,88.9,426.7,874.3,2313.8,147.1,75.3
0.091333,427.9,40.9,868.0,191.4,2316.8,76.0,426.5,870.6,2311.3,146.5,75.3
0.093333,427.7,39.7,865.5,160.7,2312.6,63.5,426.6,866.9,2307.9,146,75.3
0.095333,427.6,41.1,863.7,146.2,2304.1,54.9,426.9,863.4,2303.8,145.5,75.3
0.097333,427.2,45.8,861.7,144.3,2294.3,49.2,427.5,860.2,2299.3,144.9,75.3
0.099333,426.3,52.1,858.8,146.8,2286.9,45.3,428.3,857.6,2294.8,144.4,75.4
0.101333,425.5,58.0,856.2,148.7,2283.4,43.0,429.5,855.7,2290.5,143.8,75.4
0.103333,426.1,63.9,856.4,149.9,2284.2,44.4,430.9,854.5,2286.5,143.2,75.3
0.105333,428.7,73.7,859.9,153.9,2287.6,53.4,432.5,854.2,2283.1,142.6,75.3
0.107333,432.4,88.0,864.4,160.8,2291.8,70.5,434.3,854.7,2280.3,142,75.2
0.109333,436.2,104.6,867.6,164.1,2295.9,88.6,436.2,856,2278.3,141.4,75
0.111333,439.4,118.7,866.7,156.2,2297.7,95.0,438.3,858.1,2276.9,140.7,74.9
0.113333,440.9,126.3,862.6,137.8,2295.7,91.7,440.4,860.8,2276.3,140.1,74.8
0.115333,440.6,124.4,859.8,116.9,2290.6,88.2,442.5,863.9,2276.2,139.4,74.6
0.117333,440.7,118.3,860.2,101.9,2284.3,89.0,444.6,867.5,2276.5,138.8,74.4
0.119333,443.0,116.0,862.0,94.4,2276.4,93.5,446.6,871.2,2277.2,138.1,74.2
0.121333,447.2,120.9,864.5,95.5,2269.3,97.9,448.4,874.9,2278.1,137.5,74.1
0.123333,452.3,128.7,869.5,104.0,2268.5,101.2,450.1,878.5,2279,136.8,74
0.125333,457.5,132.8,876.6,118.5,2272.9,106.5,451.6,881.8,2279.8,136.2,73.9
0.127333,460.5,128.0,882.2,135.6,2275.0,109.8,452.9,884.7,2280.5,135.6,73.9
0.129333,460.0,114.1,885.2,151.2,2272.7,102.9,454,887.1,2280.8,134.9,73.9
0.131333,457.6,98.3,887.8,157.6,2269.1,89.2,454.9,889.1,2280.9,134.3,74
0.133333,456.2,86.1,893.8,156.6,2263.9,78.1,455.5,890.6,2280.7,133.7,74
0.135333,456.1,78.6,901.7,156.6,2257.8,72.0,456,891.6,2280.1,133.1,74
0.137333,455.8,74.3,906.1,160.3,2256.8,68.3,456.4,892.1,2279.4,132.5,74.1
0.139333,454.6,70.6,904.6,159.7,2264.5,63.8,456.6,892.4,2278.4,132,74.2
0.141333,453.0,67.0,897.2,146.3,2276.6,58.1,456.8,892.3,2277.4,131.4,74.4
0.143333,452.1,63.8,889.4,129.6,2287.3,53.4,456.8,892.1,2276.4,130.9,74.5
0.145333,452.8,61.4,886.0,120.5,2293.7,51.3,456.8,891.9,2275.5,130.4,74.7
0.147333,455.1,60.0,886.2,117.5,2295.9,53.7,456.8,891.6,2274.8,129.9,74.8
0.149333,458.4,61.8,887.4,121.8,2291.9,62.4,456.8,891.5,2274.4,129.5,74.9
0.151333,460.8,66.9,887.4,133.6,2279.9,78.7,456.8,891.4,2274.2,129,74.8
