time,f1,b1,f2,b2,f3,b3,f1p,f2p,f3p,f0,intensity
0.025880,463.4,57.7,1565.4,195.8,2153.5,380.8,467.3,1530.3,2099.1,158.4,82.1
0.027880,465.9,55.2,1546.2,227.6,2125.7,347.2,467.4,1523.1,2099.1,158.5,82.2
0.029880,468.5,52.3,1512.5,247.6,2104.8,282.2,467.5,1511.3,2099,158.6,82.2
0.031880,469.9,48.6,1482.7,246.6,2094.3,232.3,467.7,1495.2,2099,158.7,82.3
0.033880,470.0,43.5,1460.4,236.3,2086.5,203.2,467.9,1475.2,2099.1,158.9,82.4
0.035880,469.3,38.5,1442.3,227.2,2079.9,189.4,468,1451.9,2099.2,159,82.4
0.037880,468.3,35.0,1423.1,226.7,2075.4,183.8,468,1425.8,2099.3,159.2,82.5
0.039880,467.3,33.6,1399.7,236.2,2075.2,178.4,467.9,1397.7,2099.6,159.3,82.5
0.041880,466.7,33.3,1368.1,249.3,2080.1,167.4,467.5,1368.1,2100,159.5,82.6
0.043880,465.9,33.1,1329.3,252.1,2088.5,149.8,466.9,1337.8,2100.6,159.7,82.6
0.045880,464.9,31.9,1294.5,234.6,2094.8,131.8,465.9,1307.5,2101.4,159.8,82.5
0.047880,464.0,30.3,1266.6,208.1,2098.8,116.8,464.6,1277.8,2102.3,160,82.5
0.049880,463.0,29.5,1243.7,191.1,2102.9,106.6,463,1249.2,2103.4,160.1,82.4
0.051880,461.7,30.3,1223.5,194.8,2107.2,101.1,460.9,1222.2,2104.7,160.3,82.3
0.053880,460.1,32.5,1199.4,217.6,2110.8,96.8,458.4,1197.2,2106.2,160.4,82.2
0.055880,457.8,36.4,1166.9,245.4,2112.9,91.9,455.6,1174.6,2107.9,160.6,82.1
0.057880,454.6,40.0,1136.8,241.4,2114.5,88.5,452.3,1154.6,2109.8,160.7,82
0.059880,450.6,42.5,1119.9,203.6,2117.8,89.2,448.8,1137.1,2111.8,160.8,81.9
0.061880,445.7,44.7,1114.7,161.2,2123.1,93.9,444.9,1122.3,2113.9,160.9,81.8
0.063880,440.7,46.5,1113.4,132.0,2128.0,97.3,440.8,1110,2116.1,161,81.7
0.065880,435.6,48.0,1111.4,112.9,2130.4,96.3,436.5,1099.9,2118.4,161.1,81.6
0.067880,430.1,49.8,1108.3,102.3,2129.8,91.0,432.1,1091.9,2120.6,161.2,81.6
0.069880,424.8,52.0,1105.7,101.3,2127.3,84.0,427.7,1085.7,2122.8,161.2,81.5
0.071880,419.5,55.2,1104.6,111.5,2124.7,77.2,423.3,1080.8,2125,161.3,81.4
0.073880,414.6,59.6,1104.5,137.1,2123.4,72.1,419,1077,2127.1,161.3,81.4
0.075880,410.4,65.5,1101.7,187.5,2124.3,68.6,414.8,1073.7,2129.1,161.3,81.3
0.077880,408.0,73.0,1091.7,266.4,2127.2,66.4,410.8,1070.8,2130.9,161.2,81.3
0.079880,407.0,83.0,1073.7,373.4,2130.2,65.4,407.1,1067.8,2132.6,161.2,81.3
0.081880,406.6,92.8,1053.2,481.4,2132.1,64.9,403.7,1064.5,2134.1,161.1,81.3
0.083880,406.0,99.3,1041.0,544.8,2132.9,64.7,400.6,1060.7,2135.5,161,81.3
0.085880,404.3,104.2,1035.9,573.4,2133.3,65.9,397.8,1056.2,2136.7,160.8,81.3
0.087880,401.4,108.0,1031.1,575.3,2133.5,68.1,395.4,1051,2137.7,160.6,81.3
0.089880,397.7,109.6,1021.3,545.0,2133.6,69.2,393.2,1044.9,2138.6,160.4,81.3
0.091880,393.4,109.1,1009.5,485.2,2133.7,68.9,391.4,1038,2139.4,160.2,81.3
0.093880,389.2,106.7,1002.2,413.6,2134.7,68.2,389.7,1030.5,2140.1,159.9,81.3
0.095880,387.0,106.3,1001.6,362.0,2137.0,69.2,388.3,1022.4,2140.7,159.6,81.3
0.097880,385.9,111.3,1005.1,332.5,2139.7,73.5,387.1,1013.9,2141.2,159.3,81.3
0.099880,384.7,120.7,1009.1,313.2,2142.3,79.6,386,1005.3,2141.6,158.9,81.2
0.101880,383.5,130.8,1009.2,296.3,2144.1,85.2,384.9,996.7,2141.9,158.5,81.1
0.103880,382.0,140.9,1005.8,279.1,2144.5,91.1,383.9,988.4,2142.2,158,81
0.105880,379.8,148.2,1000.8,258.0,2143.6,97.7,382.8,980.6,2142.5,157.5,80.9
0.107880,378.0,149.1,995.1,232.4,2142.9,103.3,381.7,973.5,2142.7,156.9,80.8
0.109880,376.5,147.3,988.8,206.0,2143.4,109.4,380.4,967.2,2142.8,156.3,80.6
0.111880,374.6,145.7,982.3,183.6,2144.8,116.2,379,961.9,2142.8,155.7,80.4
0.113880,372.8,142.6,975.5,165.3,2147.5,118.2,377.5,957.7,2142.7,155,80.2
0.115880,371.5,137.2,966.9,145.8,2151.5,111.0,375.8,954.6,2142.5,154.3,79.9
0.117880,370.2,131.5,958.0,128.0,2154.8,97.9,374,952.7,2142.1,153.5,79.6
0.119880,369.8,128.1,950.3,115.9,2153.9,84.3,372,951.9,2141.6,152.7,79.2
0.121880,371.5,129.5,944.5,110.0,2148.3,73.7,369.8,952.2,2140.9,151.9,78.7
0.123880,373.7,137.4,940.3,107.2,2140.5,65.6,367.5,953.4,2140,151,78.2
0.125880,375.4,151.6,938.9,108.8,2133.2,60.1,365.1,955.5,2139,150.1,77.7
0.127880,378.0,170.1,940.2,119.2,2127.7,58.2,362.6,958.2,2137.7,149.1,77.1
0.129880,380.8,193.9,942.6,141.1,2123.6,58.3,360.1,961.6,2136.2,148.1,76.5
0.131880,377.3,218.1,946.0,166.5,2122.2,57.2,357.6,965.3,2134.5,147.1,75.9
0.133880,363.5,223.8,953.2,173.0,2124.5,53.7,355.1,969.4,2132.6,146.1,75.3
0.135880,346.5,201.0,965.8,158.5,2128.7,49.4,352.6,973.5,2130.6,145,74.8
0.137880,332.9,160.4,980.3,140.3,2131.8,46.0,350.3,977.6,2128.5,143.9,74.3
0.139880,324.2,127.5,991.6,132.3,2131.1,44.0,348.1,981.6,2126.3,142.9,73.8
0.141880,319.1,108.3,1000.5,129.4,2127.1,43.6,346,985.4,2124.1,141.8,73.3
0.143880,320.6,103.1,1007.0,119.8,2121.1,45.9,344,988.9,2122,140.7,72.7
0.145880,330.4,105.6,1008.4,100.6,2116.3,50.1,342.3,992.1,2119.9,139.7,72
0.147880,343.4,101.1,1005.6,77.1,2113.7,53.3,340.8,994.8,2118,138.6,71.3
0.149880,352.5,86.3,1000.5,55.5,2111.8,56.6,339.5,997.2,2116.3,137.6,70.5
0.151880,354.8,73.1,995.6,42.1,2108.3,63.6,338.4,999.1,2114.8,136.6,69.8
0.153880,352.5,67.0,992.6,35.8,2104.0,77.8,337.5,1000.6,2113.6,135.7,69.1
0.155880,347.0,68.1,992.9,33.6,2105.0,99.2,336.9,1001.7,2112.7,134.8,68.4
0.157880,338.9,74.0,997.4,33.2,2118.0,128.0,336.5,1002.3,2112.1,133.9,67.6
0.159880,328.8,83.0,1004.8,34.6,2146.5,165.3,336.4,1002.5,2112,133,66.6
