time,f1,b1,f2,b2,f3,b3,f1p,f2p,f3p,f0,intensity
0.025599,349.9,106.5,1269.9,94.0,2243.9,221.5,360.2,1262.9,2257.1,150.4,68.8
0.027599,351.9,94.8,1253.8,110.1,2251.5,179.8,361.2,1259,2253.9,150.3,69.7
0.029599,356.4,90.9,1244.7,137.3,2254.4,145.3,362.9,1252.4,2248.9,150.3,70.4
0.031599,362.2,91.4,1238.8,170.4,2253.4,145.1,365.1,1243.4,2242.2,150.3,71
0.033599,368.8,97.5,1234.4,206.7,2248.5,165.5,367.9,1231.9,2234.2,150.2,71.4
0.035599,375.8,109.0,1228.6,249.5,2237.4,186.3,371.1,1218.3,2225.3,150.2,71.7
0.037599,382.1,120.9,1217.3,293.7,2223.1,189.7,374.7,1202.6,2216.1,150.1,71.9
0.039599,387.9,130.0,1198.2,338.5,2205.8,176.5,378.5,1185.1,2207,150.1,72.1
0.041599,392.8,136.4,1173.3,377.1,2187.2,154.8,382.4,1166.2,2198.4,150.1,72.1
0.043599,396.1,139.3,1142.8,393.1,2171.2,129.8,386.3,1146.1,2190.8,150,72.2
0.045599,397.7,138.3,1111.7,375.1,2164.2,110.8,390.1,1125.2,2184.5,150,72.2
0.047599,398.9,136.0,1084.8,348.5,2166.5,100.6,393.7,1103.8,2179.8,150,72.3
0.049599,399.3,131.2,1061.9,328.7,2172.9,93.8,397.1,1082.4,2176.8,150,72.3
0.051599,398.3,122.1,1045.5,318.2,2178.1,85.7,400.1,1061.3,2175.6,150,72.3
0.053599,397.1,110.9,1034.2,318.7,2182.4,75.6,402.8,1041,2176.1,150,72.4
0.055599,396.6,101.8,1025.3,335.7,2187.1,66.4,405.1,1021.9,2178.3,149.9,72.4
0.057599,397.0,96.4,1013.6,374.4,2192.8,59.0,407,1004.2,2181.8,149.9,72.4
0.059599,399.4,96.1,996.3,429.3,2198.1,54.2,408.5,988.2,2186.3,149.9,72.4
0.061599,403.1,99.7,976.0,482.1,2201.5,51.6,409.7,974.3,2191.4,149.9,72.5
0.063599,406.1,103.0,962.8,510.8,2202.4,51.1,410.5,962.6,2196.7,150,72.5
0.065599,408.2,105.4,960.5,516.6,2202.1,53.6,411.2,953.2,2201.8,150,72.5
0.067599,410.9,109.1,963.8,508.4,2201.6,58.9,411.7,946.2,2206.3,150,72.6
0.069599,414.1,114.6,963.6,495.4,2202.6,63.7,412,941.5,2209.8,150,72.7
0.071599,416.6,118.6,958.2,477.4,2206.4,63.6,412.4,938.9,2212,150,72.8
0.073599,418.2,120.6,949.5,447.9,2210.4,59.4,412.7,938.5,2212.8,150,73
0.075599,418.8,119.6,941.0,408.3,2211.0,54.7,413.1,939.9,2211.9,150,73.1
0.077599,418.1,114.4,935.7,362.2,2208.9,50.8,413.7,943,2209.3,150.1,73.3
0.079599,417.8,107.9,934.2,320.9,2205.7,48.2,414.4,947.5,2205.1,150.1,73.5
0.081599,418.4,101.9,935.1,288.2,2200.1,46.8,415.2,953.2,2199.3,150.1,73.7
0.083599,418.9,96.3,937.2,269.0,2192.3,46.4,416.1,960,2192.3,150.1,73.8
0.085599,419.0,90.8,941.4,263.7,2184.5,48.1,417.1,967.7,2184.2,150.2,74
0.087599,419.1,85.8,950.3,274.8,2175.5,54.8,418.2,976.1,2175.3,150.2,74.1
0.089599,419.1,81.5,963.8,303.4,2162.9,67.4,419.2,985.3,2166.1,150.2,74.2
0.091599,419.4,76.4,982.9,349.0,2147.4,80.3,420.1,995.2,2156.8,150.2,74.3
0.093599,420.2,71.0,1008.7,409.0,2135.9,85.6,420.8,1006,2147.7,150.3,74.4
0.095599,420.5,65.1,1041.8,468.8,2131.3,83.4,421.2,1017.8,2139.1,150.3,74.5
0.097599,418.9,60.1,1071.0,471.2,2131.7,77.2,421.3,1030.7,2131.4,150.3,74.7
0.099599,416.6,57.5,1088.8,397.6,2133.0,71.2,420.9,1045,2124.7,150.3,74.8
0.101599,414.2,57.5,1095.5,308.0,2131.8,67.6,419.9,1060.7,2119.2,150.4,74.8
0.103599,411.4,58.3,1097.4,234.9,2127.5,64.8,418.4,1078.1,2114.9,150.4,74.9
0.105599,409.3,59.4,1101.2,186.9,2122.1,62.1,416.2,1097.3,2111.8,150.4,75
0.107599,408.2,62.3,1110.1,159.7,2117.3,60.1,413.4,1118.3,2110.1,150.5,75
0.109599,407.3,66.3,1122.1,148.9,2113.9,58.9,410,1141.2,2109.4,150.5,75
0.111599,406.1,70.9,1137.9,152.7,2112.5,57.6,406,1165.7,2109.9,150.5,74.9
0.113599,405.2,76.0,1160.0,175.9,2112.5,56.6,401.5,1191.8,2111.2,150.6,74.9
0.115599,403.3,79.6,1193.2,219.5,2112.6,55.8,396.6,1218.9,2113.2,150.6,74.8
0.117599,399.6,77.7,1237.0,262.6,2112.9,54.8,391.4,1246.7,2115.8,150.6,74.7
0.119599,394.2,71.8,1285.9,271.0,2113.1,53.1,386,1274.7,2118.8,150.7,74.5
0.121599,388.4,68.2,1319.6,236.9,2111.5,51.4,380.7,1302.3,2121.9,150.7,74.4
0.123599,382.3,67.6,1335.8,199.5,2108.1,51.3,375.4,1328.8,2125.1,150.8,74.2
0.125599,375.6,67.2,1348.2,174.3,2105.6,55.4,370.5,1353.6,2128.1,150.8,74.1
0.127599,369.0,66.6,1364.6,163.7,2107.5,66.9,366,1375.9,2130.9,150.8,73.9
0.129599,362.1,65.6,1384.7,159.7,2115.2,87.8,362.2,1395.1,2133.3,150.9,73.8
0.131599,355.9,63.5,1403.8,154.2,2128.3,112.2,359,1410.7,2135.3,150.9,73.6
0.133599,351.1,61.3,1422.9,145.1,2147.0,127.3,356.7,1422.2,2136.7,151,73.5
0.135599,347.7,60.3,1441.4,137.2,2165.0,123.6,355.2,1429.3,2137.6,151,73.4
0.137599,344.7,59.3,1459.0,136.0,2177.9,113.8,354.8,1431.7,2137.9,151,73.3
