time,f1,b1,f2,b2,f3,b3,f1p,f2p,f3p,f0,intensity
0.025900,453.4,138.6,1043.8,215.9,2259.6,107.4,453,1012.8,2264.6,150.2,76.9
0.027900,456.0,96.9,1025.7,164.1,2262.6,96.9,453.9,1014.1,2264.5,150,77.6
0.029900,457.0,76.1,1017.3,132.8,2262.8,89.7,455.3,1016.4,2264.5,149.8,78.2
0.031900,458.1,67.2,1019.5,110.7,2264.4,87.8,457.3,1019.4,2264.4,149.5,78.6
0.033900,460.3,65.3,1027.5,92.7,2268.4,91.7,459.8,1023.1,2264.4,149.3,78.8
0.035900,463.4,67.1,1033.6,78.1,2272.6,97.8,462.8,1027.4,2264.6,149.1,78.8
0.037900,467.1,69.9,1035.1,66.7,2275.1,101.8,466.1,1032,2264.8,148.9,78.8
0.039900,471.0,72.7,1034.5,58.1,2274.5,105.7,469.8,1036.9,2265.3,148.6,78.7
0.041900,474.5,75.6,1034.0,52.2,2269.3,114.6,473.8,1041.9,2266.1,148.4,78.5
0.043900,477.4,78.2,1034.6,48.1,2260.3,128.3,478.1,1046.8,2267.2,148.2,78.3
0.045900,480.6,81.2,1036.5,45.7,2253.4,142.5,482.4,1051.4,2268.7,148,78.1
0.047900,484.9,84.9,1040.4,44.8,2255.1,152.6,486.9,1055.6,2270.5,147.8,78
0.049900,489.6,87.5,1046.1,44.8,2263.7,154.4,491.3,1059.3,2272.8,147.6,77.9
0.051900,494.0,88.0,1051.7,44.8,2272.3,150.3,495.7,1062.3,2275.6,147.4,77.8
0.053900,498.3,87.3,1055.5,45.7,2279.2,147.6,499.9,1064.6,2278.8,147.2,77.7
0.055900,502.4,86.4,1057.0,47.8,2285.1,147.8,503.8,1066.2,2282.5,147.1,77.6
0.057900,505.8,86.8,1057.6,50.3,2290.5,147.3,507.5,1066.9,2286.7,146.9,77.6
0.059900,508.6,89.7,1058.8,53.6,2297.5,142.5,510.8,1066.9,2291.2,146.8,77.5
0.061900,511.0,93.4,1060.6,59.3,2306.7,133.6,513.7,1066.2,2296.1,146.7,77.5
0.063900,513.1,94.6,1062.8,66.4,2314.5,125.1,516.2,1064.7,2301.2,146.6,77.4
0.065900,515.7,93.4,1066.5,72.5,2317.9,121.6,518.1,1062.7,2306.5,146.5,77.3
0.067900,519.1,91.8,1071.5,78.3,2317.5,123.5,519.5,1060.2,2312,146.4,77.2
0.069900,522.2,90.0,1074.8,84.8,2316.1,125.7,520.3,1057.4,2317.5,146.4,77.1
0.071900,523.6,87.6,1072.9,88.9,2315.5,124.7,520.6,1054.4,2323,146.3,77.1
0.073900,523.3,84.4,1065.9,88.4,2315.3,121.6,520.3,1051.3,2328.3,146.3,77.1
0.075900,522.1,81.2,1057.4,85.5,2317.8,117.9,519.4,1048.3,2333.3,146.3,77.2
0.077900,520.6,78.8,1051.3,82.1,2325.3,114.7,518,1045.5,2338.1,146.3,77.2
0.079900,519.2,77.9,1048.8,79.1,2336.4,114.7,516,1043,2342.5,146.3,77.3
0.081900,517.1,78.4,1048.1,78.3,2347.9,119.4,513.5,1040.9,2346.5,146.3,77.4
0.083900,514.1,78.1,1047.4,79.0,2358.2,125.7,510.5,1039.3,2350,146.3,77.5
0.085900,510.5,76.4,1045.9,77.5,2366.6,128.2,507.2,1038.2,2353,146.4,77.5
0.087900,505.8,74.7,1043.3,73.4,2370.5,126.7,503.4,1037.6,2355.6,146.4,77.6
0.089900,500.0,73.3,1039.8,68.3,2368.0,123.0,499.4,1037.5,2357.6,146.5,77.6
0.091900,494.1,71.1,1036.4,62.2,2362.1,114.9,495.1,1037.9,2359.1,146.6,77.6
0.093900,489.1,69.8,1034.0,55.5,2356.9,102.5,490.5,1038.6,2360.2,146.6,77.7
0.095900,484.4,71.4,1032.0,50.1,2353.5,90.8,485.9,1039.6,2360.9,146.7,77.7
0.097900,479.4,73.6,1030.4,46.2,2352.7,82.2,481.1,1040.8,2361.3,146.8,77.8
0.099900,474.4,74.5,1029.7,43.3,2354.5,76.0,476.4,1042,2361.4,146.8,77.9
0.101900,469.2,75.0,1029.6,41.8,2356.2,72.1,471.6,1043.1,2361.3,146.9,78
0.103900,463.4,74.7,1029.3,41.6,2356.2,70.4,467,1044,2361.1,146.9,78.1
0.105900,458.2,71.7,1028.9,41.7,2355.9,69.7,462.5,1044.4,2360.7,147,78.1
0.107900,453.6,66.7,1029.0,42.3,2355.8,70.3,458.1,1044.3,2360.4,147,78.2
0.109900,449.0,62.2,1030.0,45.2,2355.0,73.2,453.9,1043.7,2360.2,147,78.2
0.111900,445.2,58.7,1031.5,51.5,2353.6,78.1,450,1042.3,2360,147,78.3
0.113900,443.3,56.2,1033.7,61.1,2355.6,84.5,446.3,1040.1,2359.9,147,78.3
0.115900,442.5,55.1,1037.1,75.2,2364.0,91.3,442.9,1037.2,2360,146.9,78.4
0.117900,441.5,54.7,1041.1,92.7,2375.3,94.4,439.7,1033.5,2360.2,146.9,78.5
0.119900,440.4,54.1,1043.2,109.5,2382.4,92.0,436.8,1029,2360.5,146.8,78.5
0.121900,439.0,54.0,1041.7,125.9,2382.2,87.0,434.2,1023.9,2360.8,146.7,78.6
0.123900,436.7,54.0,1037.5,144.9,2377.1,82.2,431.9,1018.2,2361.2,146.6,78.7
0.125900,433.9,53.2,1031.0,165.1,2370.6,78.6,429.8,1012.2,2361.5,146.4,78.7
0.127900,431.6,52.2,1022.4,183.2,2363.8,77.2,427.9,1005.9,2361.6,146.3,78.7
0.129900,429.6,52.0,1012.0,196.3,2356.0,78.2,426.2,999.6,2361.6,146.1,78.8
0.131900,427.1,51.5,1001.5,197.4,2349.2,79.2,424.7,993.4,2361.2,145.9,78.8
0.133900,425.0,49.8,992.0,185.5,2346.3,78.4,423.3,987.6,2360.5,145.6,78.7
0.135900,423.7,48.1,983.6,173.3,2346.8,75.4,422.1,982.3,2359.3,145.4,78.6
0.137900,422.2,46.7,976.0,169.2,2347.5,69.0,421,977.8,2357.5,145.1,78.5
0.139900,419.9,44.7,968.9,168.0,2346.1,59.5,419.9,974.3,2355,144.9,78.3
0.141900,418.2,42.6,964.0,164.1,2342.7,49.8,418.9,971.9,2351.9,144.6,78.1
0.143900,417.2,41.7,963.5,161.0,2338.2,42.6,418,970.7,2348,144.3,77.9
0.145900,415.9,41.7,966.1,159.1,2333.9,38.3,417,970.8,2343.5,144,77.6
0.147900,414.2,41.8,968.6,153.2,2330.8,36.2,416.1,972.3,2338.2,143.7,77.3
0.149900,412.9,42.6,970.0,147.0,2328.1,36.6,415.1,975.1,2332.1,143.4,77
0.151900,411.5,43.7,971.3,146.4,2324.9,40.0,414.1,979.3,2325.5,143,76.7
0.153900,409.8,44.3,974.8,149.3,2321.7,47.5,413.1,984.7,2318.3,142.7,76.4
0.155900,408.8,44.6,984.3,150.3,2320.0,61.3,412.1,991.2,2310.6,142.4,76.2
0.157900,408.7,45.2,998.9,146.4,2320.2,82.3,411.1,998.7,2302.6,142.1,75.9
0.159900,408.1,44.9,1012.4,130.8,2318.9,106.8,410.1,1006.9,2294.4,141.8,75.6
0.161900,407.2,42.8,1020.2,100.3,2311.0,128.3,409.1,1015.6,2286.1,141.5,75.4
0.163900,406.9,40.4,1023.0,68.5,2293.8,143.3,408.1,1024.6,2277.9,141.2,75.2
0.165900,406.3,38.0,1023.4,46.4,2273.7,148.4,407.2,1033.6,2270,140.9,75
0.167900,404.8,35.0,1023.7,33.0,2259.5,145.3,406.3,1042.3,2262.6,140.6,74.9
0.169900,404.2,32.5,1027.0,25.8,2252.5,140.4,405.5,1050.5,2255.8,140.4,74.7
0.171900,405.8,32.5,1035.7,23.3,2250.0,134.6,404.8,1058,2249.7,140.1,74.5
0.173900,407.8,34.2,1050.0,23.6,2248.6,125.2,404.2,1064.4,2244.6,139.9,74.3
0.175900,407.8,34.2,1067.2,24.8,2243.1,116.9,403.7,1069.6,2240.4,139.6,74
0.177900,406.1,32.3,1084.5,27.1,2231.4,112.6,403.4,1073.4,2237.4,139.4,73.6
0.179900,404.6,32.2,1103.0,33.6,2217.5,106.8,403.2,1075.8,2235.5,139.2,73.2
0.181900,404.5,38.2,1132.6,50.6,2209.4,96.2,403.1,1076.6,2234.9,139,72.6
