time,f1,b1,f2,b2,f3,b3,f1p,f2p,f3p,f0,intensity
0.025261,408.4,31.7,914.6,52.9,2058.1,85.8,421.4,933.9,2060,131.7,77.4
0.027261,410.5,34.9,918.1,53.3,2062.3,81.2,422,935.7,2061.5,131.6,77.3
0.029261,414.5,38.9,923.8,57.3,2064.8,78.4,423.1,938.7,2063.9,131.5,77.3
0.031261,419.9,45.2,934.5,65.4,2065.3,77.7,424.5,942.7,2067.3,131.4,77.3
0.033261,425.6,52.5,951.0,74.2,2069.2,77.2,426.2,947.8,2071.5,131.3,77.3
0.035261,430.4,57.1,967.2,79.1,2078.1,75.2,428.3,953.8,2076.5,131.2,77.3
0.037261,435.3,59.2,979.6,82.6,2088.8,71.6,430.6,960.6,2082.2,131.1,77.3
0.039261,439.8,58.5,987.5,88.9,2098.0,66.8,433.2,968,2088.5,131,77.2
0.041261,442.2,54.1,991.7,97.7,2103.4,62.8,435.9,975.9,2095.4,130.9,77.2
0.043261,444.0,48.1,994.9,104.7,2107.6,62.4,438.7,984.1,2102.8,130.8,77.2
0.045261,446.9,44.3,999.5,104.6,2114.0,70.9,441.6,992.5,2110.4,130.6,77.3
0.047261,450.0,44.0,1006.1,98.0,2121.5,90.0,444.5,1000.9,2118.3,130.5,77.3
0.049261,452.1,45.1,1014.4,88.4,2125.7,111.1,447.4,1009.2,2126.3,130.4,77.4
0.051261,454.1,45.9,1022.6,77.0,2124.7,123.3,450.1,1017.1,2134.2,130.3,77.5
0.053261,456.5,45.7,1028.5,67.4,2122.4,124.5,452.6,1024.6,2142.1,130.2,77.5
0.055261,458.9,44.6,1033.3,61.2,2127.1,117.6,454.9,1031.5,2149.7,130.1,77.5
0.057261,460.5,43.0,1037.7,58.2,2144.8,103.8,456.9,1037.7,2157,130,77.6
0.059261,461.3,41.6,1040.4,55.9,2166.1,91.2,458.6,1043,2163.9,129.9,77.6
0.061261,461.4,40.8,1040.5,53.2,2181.0,85.7,460,1047.5,2170.3,129.8,77.6
0.063261,460.0,40.4,1039.4,50.3,2184.4,88.5,460.9,1051,2176.1,129.7,77.7
0.065261,457.8,39.2,1038.9,46.1,2177.9,96.2,461.5,1053.5,2181.3,129.6,77.8
0.067261,457.0,38.3,1039.1,41.9,2172.5,100.2,461.6,1055,2185.9,129.6,77.9
0.069261,457.4,39.8,1039.6,40.6,2178.0,94.8,461.3,1055.5,2189.8,129.5,78
0.071261,457.6,43.9,1040.9,43.6,2192.8,81.6,460.5,1055,2193,129.4,78.1
0.073261,457.1,46.7,1043.4,47.5,2205.3,68.7,459.3,1053.6,2195.5,129.4,78.1
0.075261,456.7,47.5,1045.6,49.0,2211.8,58.9,457.6,1051.3,2197.2,129.3,78.1
0.077261,456.0,47.5,1044.6,49.0,2212.1,52.4,455.6,1048.2,2198.3,129.3,78.1
0.079261,453.7,46.2,1040.3,49.5,2207.9,50.7,453.2,1044.3,2198.8,129.2,78.1
0.081261,450.5,42.7,1035.4,50.1,2203.3,54.4,450.5,1039.8,2198.7,129.2,78
0.083261,447.4,38.9,1031.5,49.9,2200.9,65.4,447.4,1034.8,2198,129.1,78
0.085261,443.8,37.6,1027.9,49.8,2199.3,80.5,444.1,1029.4,2196.8,129.1,78
0.087261,439.0,37.8,1023.9,50.6,2196.2,92.9,440.6,1023.6,2195.3,129,78
0.089261,434.7,36.8,1021.1,51.0,2193.4,99.9,436.9,1017.6,2193.4,129,78
0.091261,431.5,35.3,1020.1,50.5,2193.0,106.4,433.1,1011.4,2191.3,128.9,78
0.093261,427.4,35.2,1018.8,50.9,2192.6,118.0,429.2,1005.1,2189,128.9,78
0.095261,422.1,35.6,1015.9,53.0,2189.9,132.7,425.3,998.9,2186.6,128.8,78
0.097261,418.1,34.1,1012.3,55.6,2186.1,144.0,421.3,992.7,2184.2,128.7,78
0.099261,415.2,31.7,1008.2,59.6,2182.0,155.3,417.5,986.7,2181.8,128.7,78
0.101261,411.8,30.3,1002.7,67.5,2177.3,168.3,413.7,980.7,2179.6,128.6,78
0.103261,408.0,29.7,995.0,81.0,2174.5,174.6,410.1,975,2177.7,128.5,78.1
0.105261,406.2,29.3,986.0,96.7,2176.4,168.4,406.6,969.3,2176,128.4,78.2
0.107261,404.8,29.2,974.6,112.3,2176.2,157.0,403.3,963.8,2174.6,128.4,78.3
0.109261,401.7,29.5,960.3,123.5,2167.9,148.3,400.2,958.5,2173.5,128.3,78.4
0.111261,398.4,28.7,949.6,125.8,2157.6,145.6,397.4,953.2,2172.9,128.2,78.5
0.113261,396.7,27.1,943.4,125.4,2151.3,147.2,394.8,948,2172.7,128.1,78.7
0.115261,395.4,26.2,936.6,129.2,2149.8,146.0,392.4,942.8,2172.9,128,78.8
0.117261,392.8,26.7,927.5,137.6,2153.2,135.0,390.3,937.5,2173.6,127.8,79
0.119261,390.3,26.8,918.9,146.5,2160.8,121.7,388.4,932.2,2174.7,127.7,79.1
0.121261,389.7,26.1,912.1,153.6,2171.6,115.7,386.7,926.7,2176.2,127.6,79.2
0.123261,389.3,25.8,905.3,157.9,2182.0,119.1,385.2,921.1,2178.1,127.5,79.3
0.125261,387.8,26.5,898.0,160.1,2190.5,126.4,384,915.3,2180.3,127.3,79.5
0.127261,386.4,26.8,894.6,162.7,2197.5,129.7,382.9,909.3,2182.9,127.2,79.6
0.129261,386.2,25.8,893.6,164.1,2204.0,131.2,382,903.1,2185.7,127.1,79.7
0.131261,385.3,24.0,888.5,160.9,2211.3,137.4,381.2,896.8,2188.7,126.9,79.8
0.133261,382.2,22.3,877.6,152.6,2218.0,145.8,380.5,890.4,2191.9,126.8,79.9
0.135261,379.5,20.7,867.4,144.7,2220.3,149.8,380,883.8,2195.1,126.6,79.9
0.137261,378.7,19.2,860.9,142.0,2216.8,151.4,379.5,877.4,2198.4,126.5,80
0.139261,378.1,18.5,856.0,143.9,2205.3,150.6,379,871,2201.6,126.4,79.9
0.141261,376.1,18.6,850.8,146.2,2192.0,140.9,378.6,864.8,2204.8,126.2,79.9
0.143261,374.4,19.0,847.6,150.1,2188.6,125.6,378.2,859,2207.8,126.1,79.8
0.145261,374.6,19.4,849.0,159.1,2197.0,114.9,377.7,853.8,2210.6,126,79.7
0.147261,375.3,20.0,853.5,169.6,2211.5,112.6,377.3,849.2,2213.1,125.8,79.6
0.149261,374.3,20.8,856.6,174.4,2224.2,117.4,376.8,845.4,2215.3,125.7,79.5
0.151261,372.8,21.2,859.1,174.9,2231.9,126.3,376.3,842.6,2217.1,125.6,79.4
0.153261,372.7,20.9,863.9,173.7,2232.5,144.2,375.7,840.9,2218.5,125.5,79.3
0.155261,372.9,20.6,870.3,171.5,2225.6,176.6,375.1,840.6,2219.5,125.3,79.2
0.157261,371.6,21.0,875.5,169.3,2214.0,217.8,374.4,841.8,2220.1,125.2,79.1
0.159261,370.1,21.0,878.0,164.7,2200.6,253.6,373.7,844.6,2220.2,125.1,79
0.161261,370.2,20.0,878.7,156.0,2188.0,275.9,372.9,849.2,2219.8,125,79
0.163261,370.4,18.5,878.3,144.5,2179.1,284.4,372.1,855.6,2218.9,124.9,79
0.165261,369.3,17.5,878.0,137.2,2185.7,269.8,371.3,863.9,2217.6,124.8,78.9
0.167261,368.2,17.2,880.1,138.8,2203.8,239.7,370.5,874.3,2215.8,124.7,78.9
0.169261,368.6,16.9,887.0,146.0,2219.2,209.2,369.6,886.6,2213.6,124.6,79
0.171261,369.2,17.0,899.6,156.7,2226.8,184.1,368.7,900.8,2211,124.5,79
0.173261,368.3,17.6,914.2,170.7,2226.4,165.8,367.9,917,2208,124.4,79
0.175261,367.4,18.1,931.7,186.3,2218.7,153.2,367,935.1,2204.7,124.3,79.1
0.177261,368.1,17.6,955.9,198.0,2202.7,150.0,366.2,954.8,2201.1,124.2,79.1
0.179261,369.0,16.3,982.8,201.5,2185.4,150.3,365.4,976,2197.2,124.1,79.2
0.181261,368.3,15.2,1006.2,202.1,2179.1,140.8,364.7,998.6,2193.2,124,79.3
0.183261,367.4,14.6,1019.9,197.7,2186.1,123.7,364,1022.3,2189,123.9,79.3
0.185261,367.8,13.6,1028.8,171.4,2196.9,108.6,363.4,1046.8,2184.7,123.8,79.4
0.187261,368.3,12.5,1042.8,130.8,2203.6,105.2,362.8,1071.8,2180.4,123.7,79.4
0.189261,367.4,12.0,1061.7,99.5,2204.6,116.4,362.2,1097.1,2176,123.6,79.5
0.191261,366.0,12.4,1083.0,83.0,2199.0,141.7,361.8,1122.3,2171.8,123.5,79.5
0.193261,365.9,12.9,1105.0,76.0,2185.6,169.4,361.3,1147.1,2167.7,123.4,79.5
0.195261,366.0,13.2,1127.4,72.2,2168.3,185.5,361,1171.2,2163.7,123.3,79.5
0.197261,364.2,13.6,1146.7,71.4,2158.0,190.4,360.7,1194.2,2160,123.2,79.5
0.199261,362.0,13.9,1160.7,76.0,2156.9,197.0,360.4,1215.8,2156.5,123.1,79.5
0.201261,361.3,14.6,1177.0,89.4,2156.0,207.0,360.2,1235.6,2153.4,123,79.4
0.203261,361.2,15.8,1208.3,115.6,2148.4,210.9,360,1253.5,2150.5,122.9,79.4
0.205261,359.4,16.9,1254.2,140.8,2141.9,200.2,359.8,1269.1,2148.1,122.8,79.3
0.207261,356.4,17.1,1300.7,148.1,2141.4,182.2,359.7,1282.2,2146.1,122.7,79.1
0.209261,354.8,16.5,1338.6,139.4,2141.9,168.2,359.7,1292.6,2144.5,122.6,79
0.211261,354.5,15.7,1366.9,127.8,2137.9,162.3,359.6,1300.1,2143.3,122.5,78.9
0.213261,353.0,15.2,1389.2,121.3,2128.6,159.2,359.6,1304.7,2142.6,122.4,78.7
0.215261,349.8,15.4,1406.8,127.2,2115.7,158.3,359.5,1306.2,2142.3,122.3,78.5
