time,f1,b1,f2,b2,f3,b3,f1p,f2p,f3p,f0,intensity
0.025615,250.4,363.5,1439.7,119.4,2305.8,84.9,279.7,1379.5,2258.4,113.7,76
0.027615,232.8,440.3,1424.3,114.0,2311.2,84.6,281.4,1378.3,2258.1,113.7,76.4
0.029615,217.2,499.0,1406.3,113.2,2307.0,78.4,284.2,1376.4,2257.7,113.7,76.7
0.031615,224.2,497.4,1389.4,106.5,2295.2,66.4,288.1,1373.7,2257.1,113.7,77
0.033615,243.1,465.2,1377.8,95.8,2283.0,56.0,292.9,1370.3,2256.3,113.8,77.2
0.035615,259.0,460.2,1369.5,92.0,2271.1,51.8,298.8,1366.2,2255.4,113.8,77.3
0.037615,274.4,494.9,1360.1,101.5,2257.0,56.0,305.5,1361.4,2254.3,113.8,77.5
0.039615,299.8,515.7,1348.4,113.7,2241.9,63.6,313.1,1356,2253.1,113.8,77.6
0.041615,326.9,517.6,1340.4,122.0,2233.0,68.8,321.4,1350,2251.7,113.8,77.6
0.043615,351.8,519.5,1337.7,132.7,2230.4,73.0,330.4,1343.5,2250.2,113.8,77.7
0.045615,376.1,507.9,1335.8,150.6,2227.4,78.9,339.8,1336.5,2248.5,113.9,77.7
0.047615,401.6,465.6,1325.6,171.5,2217.4,86.3,349.8,1329.1,2246.8,113.9,77.7
0.049615,422.6,412.9,1306.6,180.9,2204.2,89.4,360,1321.3,2244.9,113.9,77.7
0.051615,437.9,377.6,1287.2,179.8,2197.3,86.4,370.4,1313.2,2243,113.9,77.6
0.053615,442.6,387.4,1274.4,182.0,2200.7,82.4,381,1304.9,2240.9,113.9,77.5
0.055615,432.3,437.2,1264.8,187.8,2208.2,78.8,391.5,1296.4,2238.8,114,77.3
0.057615,418.0,478.2,1256.7,186.9,2214.9,72.9,401.8,1287.7,2236.6,114,77.1
0.059615,416.6,480.7,1250.4,183.4,2220.2,65.3,411.9,1279,2234.4,114,76.9
0.061615,425.1,471.1,1243.5,192.0,2221.1,63.1,421.6,1270.2,2232.1,114,76.7
0.063615,430.0,473.6,1232.0,220.9,2213.4,72.9,430.8,1261.6,2229.8,114,76.5
0.065615,431.5,463.3,1216.1,254.3,2197.9,92.7,439.4,1253,2227.4,114.1,76.3
0.067615,439.9,446.1,1205.4,287.8,2187.7,108.8,447.3,1244.5,2225.1,114.1,76.2
0.069615,459.8,469.2,1212.3,336.6,2201.3,103.8,454.5,1236.2,2222.8,114.1,76.1
0.071615,482.6,521.0,1228.6,374.9,2221.0,82.6,460.8,1228.2,2220.5,114.1,76
0.073615,498.8,564.3,1236.8,380.6,2231.0,60.5,466.2,1220.4,2218.3,114.2,76
0.075615,508.8,554.7,1236.8,369.4,2234.6,45.6,470.6,1213,2216,114.2,76
0.077615,517.4,508.9,1237.3,363.8,2237.4,36.5,474,1205.8,2213.9,114.2,76
0.079615,519.6,458.6,1239.4,370.5,2239.7,32.1,476.4,1199,2211.8,114.2,76
0.081615,513.7,405.5,1240.3,392.1,2240.8,32.4,477.7,1192.5,2209.8,114.3,75.9
0.083615,508.6,359.4,1233.6,429.5,2239.9,40.0,477.9,1186.4,2207.9,114.3,75.8
0.085615,508.9,334.0,1213.8,471.9,2236.6,62.0,477,1180.6,2206,114.3,75.6
0.087615,506.4,339.1,1184.3,486.7,2231.3,109.8,475.1,1175.2,2204.3,114.3,75.4
0.089615,490.8,397.4,1158.0,442.3,2224.2,171.2,472.2,1170.1,2202.7,114.4,75.2
0.091615,450.5,505.5,1141.5,348.1,2217.3,178.8,468.2,1165.4,2201.2,114.4,75
0.093615,401.9,588.6,1135.1,264.8,2210.3,157.9,463.3,1160.9,2199.8,114.4,74.9
0.095615,376.3,599.2,1136.1,213.4,2202.9,139.8,457.5,1156.8,2198.6,114.4,74.7
0.097615,368.5,566.8,1139.7,181.1,2193.7,122.4,450.9,1152.9,2197.5,114.4,74.6
0.099615,367.0,530.2,1141.0,165.0,2187.0,102.5,443.5,1149.2,2196.5,114.4,74.5
0.101615,367.7,510.4,1138.8,157.4,2186.3,85.7,435.5,1145.6,2195.7,114.4,74.5
0.103615,369.1,499.1,1137.6,151.0,2188.0,74.0,426.9,1142.3,2195,114.4,74.6
0.105615,370.3,486.7,1141.5,149.1,2188.0,67.7,417.8,1139,2194.4,114.3,74.7
0.107615,372.4,466.7,1148.0,156.2,2184.9,63.5,408.3,1135.8,2194,114.3,74.8
0.109615,375.1,444.0,1150.2,164.5,2181.7,58.9,398.6,1132.6,2193.8,114.2,75
0.111615,375.2,430.0,1147.3,164.4,2180.2,53.2,388.6,1129.4,2193.7,114.2,75.1
0.113615,370.8,436.2,1144.9,162.7,2180.1,48.4,378.6,1126.1,2193.7,114.1,75.3
0.115615,364.7,463.1,1145.6,178.9,2180.5,44.5,368.6,1122.7,2193.9,114,75.4
0.117615,364.8,486.7,1145.3,219.7,2182.4,39.8,358.7,1119.2,2194.2,113.9,75.5
0.119615,371.0,495.0,1138.3,276.0,2185.6,33.8,349,1115.4,2194.6,113.8,75.6
0.121615,373.1,498.7,1126.0,322.8,2188.4,28.5,339.7,1111.5,2195.2,113.7,75.6
0.123615,364.7,499.0,1116.8,343.2,2189.4,25.9,330.7,1107.3,2195.8,113.6,75.6
0.125615,349.9,485.9,1112.0,328.6,2188.9,27.2,322.2,1102.9,2196.6,113.4,75.6
0.127615,337.0,469.1,1102.6,295.6,2189.7,33.5,314.3,1098.1,2197.5,113.2,75.6
0.129615,326.9,467.8,1089.9,268.9,2195.9,43.4,306.9,1093.1,2198.5,113.1,75.6
0.131615,312.2,487.5,1079.0,254.1,2205.4,51.1,300.3,1087.7,2199.6,112.9,75.6
0.133615,291.9,515.7,1068.6,249.7,2211.0,55.8,294.3,1081.9,2200.8,112.7,75.6
0.135615,275.7,532.5,1054.7,252.2,2214.0,60.3,289.2,1075.9,2202.1,112.4,75.7
0.137615,269.7,542.3,1039.8,262.0,2219.2,62.6,284.8,1069.5,2203.4,112.2,75.8
0.139615,270.9,548.1,1031.3,278.8,2227.0,61.7,281.2,1062.7,2204.8,112,75.8
0.141615,289.5,503.7,1034.5,295.2,2235.7,61.0,278.5,1055.7,2206.3,111.7,75.9
0.143615,314.9,395.4,1043.0,280.8,2244.1,64.4,276.6,1048.3,2207.8,111.4,76
0.145615,324.7,298.3,1036.1,228.9,2251.6,73.7,275.5,1040.6,2209.3,111.2,76
0.147615,322.2,247.6,1017.5,175.6,2252.8,86.5,275.2,1032.7,2210.9,110.9,76
0.149615,311.5,239.1,997.2,137.7,2232.6,88.7,275.6,1024.6,2212.5,110.6,75.9
0.151615,295.5,267.8,982.1,114.8,2201.0,64.7,276.9,1016.2,2214.1,110.3,75.8
0.153615,284.2,312.0,975.5,102.3,2193.6,45.5,278.8,1007.7,2215.8,110,75.8
0.155615,285.9,336.6,975.7,94.0,2200.1,36.5,281.4,999,2217.4,109.7,75.7
0.157615,292.9,343.5,978.3,85.5,2207.9,30.6,284.7,990.3,2219.1,109.3,75.7
0.159615,294.5,346.7,980.2,79.0,2211.4,26.7,288.4,981.5,2220.7,109,75.6
0.161615,291.2,335.3,979.9,75.8,2208.7,24.6,292.7,972.7,2222.4,108.7,75.6
0.163615,293.4,295.1,976.4,74.0,2201.5,23.4,297.4,964,2224,108.3,75.5
0.165615,300.7,247.3,969.7,70.6,2194.7,22.4,302.5,955.3,2225.6,108,75.5
0.167615,306.0,222.1,962.7,67.8,2193.3,22.5,307.9,946.8,2227.2,107.6,75.4
0.169615,306.5,220.0,957.6,71.7,2196.6,25.2,313.5,938.5,2228.8,107.3,75.3
0.171615,305.4,225.9,953.9,86.5,2201.2,31.9,319.3,930.4,2230.3,106.9,75.2
0.173615,309.0,227.5,949.0,110.2,2207.6,42.5,325.2,922.5,2231.9,106.5,75.1
0.175615,316.1,228.9,941.2,122.9,2217.6,49.8,331.1,914.9,2233.4,106.2,75
0.177615,321.8,233.8,933.1,120.5,2227.7,49.3,337,907.7,2234.8,105.8,74.8
0.179615,327.3,233.4,925.5,117.5,2234.0,45.1,342.8,900.9,2236.2,105.4,74.6
0.181615,336.3,204.8,918.7,125.4,2235.4,41.2,348.5,894.4,2237.6,105.1,74.5
0.183615,346.4,158.8,910.5,143.2,2236.2,38.3,354,888.3,2239,104.7,74.3
0.185615,353.0,130.9,901.2,160.2,2239.1,36.4,359.3,882.7,2240.3,104.4,74.2
0.187615,357.2,125.7,892.1,177.1,2243.7,36.1,364.3,877.6,2241.6,104,74
0.189615,360.3,144.3,880.2,206.1,2247.8,38.6,369.1,872.9,2242.9,103.6,73.9
0.191615,364.3,176.1,861.6,251.7,2252.0,41.6,373.4,868.7,2244.2,103.3,73.7
0.193615,369.0,189.3,849.8,280.2,2256.6,39.6,377.5,865.1,2245.4,103,73.6
0.195615,372.4,183.6,851.8,277.0,2260.7,34.1,381.2,861.9,2246.6,102.6,73.4
0.197615,374.4,178.8,856.4,260.6,2263.0,29.6,384.5,859.2,2247.8,102.3,73.2
0.199615,376.5,176.4,852.7,245.4,2262.5,28.2,387.4,856.9,2248.9,102,72.9
0.201615,378.7,162.9,839.0,232.6,2258.0,31.1,390,855.2,2250.1,101.7,72.6
0.203615,379.6,135.4,823.7,217.1,2249.2,39.3,392.2,853.9,2251.2,101.4,72.3
0.205615,379.6,115.5,821.3,210.0,2244.9,53.9,394,853.1,2252.3,101.1,72.1
0.207615,382.5,116.0,831.5,231.9,2258.8,70.7,395.5,852.6,2253.4,100.8,72
0.209615,391.2,133.5,844.1,277.6,2280.4,80.0,396.7,852.6,2254.5,100.6,71.9
0.211615,405.2,154.2,853.5,308.1,2293.4,82.2,397.6,853,2255.6,100.3,71.8
0.213615,412.8,158.3,861.2,284.5,2296.6,78.3,398.2,853.7,2256.7,100.1,71.8
0.215615,411.8,152.1,866.5,241.6,2294.9,70.3,398.5,854.7,2257.8,99.8,71.8
0.217615,407.2,145.1,868.6,204.2,2290.8,60.8,398.7,856,2258.9,99.6,71.6
0.219615,403.2,139.9,865.6,184.4,2285.7,53.0,398.6,857.5,2260,99.4,71.4
0.221615,402.5,131.6,855.9,184.0,2281.7,47.8,398.4,859.3,2261,99.2,71.2
0.223615,403.3,116.7,844.6,189.3,2281.0,44.0,398.1,861.3,2262.1,99,70.9
0.225615,402.4,99.6,841.3,183.3,2282.1,40.6,397.7,863.5,2263.2,98.8,70.5
0.227615,401.3,89.7,847.7,176.7,2280.4,40.0,397.2,865.7,2264.3,98.6,70.2
0.229615,402.9,91.6,856.3,192.2,2272.1,45.4,396.7,868.1,2265.4,98.5,69.9
0.231615,406.9,99.0,859.3,228.6,2258.0,56.6,396.2,870.6,2266.4,98.3,69.6
0.233615,408.8,98.0,856.5,249.4,2242.6,66.7,395.6,873.1,2267.5,98.1,69.3
0.235615,406.1,88.4,856.6,232.1,2236.2,69.4,395.1,875.7,2268.6,98,69.1
0.237615,402.5,80.5,862.6,209.6,2238.8,68.1,394.7,878.2,2269.6,97.8,68.8
0.239615,400.9,78.4,870.4,206.8,2243.4,67.7,394.3,880.7,2270.7,97.6,68.5
0.241615,401.2,79.3,877.1,229.7,2244.8,71.6,394,883.2,2271.7,97.5,68.3
0.243615,401.3,77.4,881.5,259.4,2242.0,79.7,393.8,885.6,2272.7,97.3,68
0.245615,399.5,74.5,889.0,272.6,2238.4,90.2,393.6,888,2273.7,97.1,67.7
0.247615,397.8,76.4,904.2,292.5,2235.7,107.1,393.6,890.2,2274.7,97,67.5
0.249615,398.5,84.4,925.8,354.8,2237.1,132.5,393.6,892.4,2275.7,96.8,67.3
0.251615,400.5,85.5,947.0,456.5,2241.6,158.8,393.7,894.4,2276.6,96.6,67.1
0.253615,399.8,72.9,953.2,519.2,2243.9,170.5,393.9,896.4,2277.5,96.5,66.9
0.255615,395.3,58.6,941.4,466.2,2244.1,161.0,394.2,898.2,2278.4,96.3,66.7
0.257615,389.5,50.2,930.6,347.0,2242.4,146.7,394.5,899.9,2279.2,96.1,66.6
0.259615,385.2,49.7,929.7,269.9,2238.1,147.1,394.9,901.4,2280,95.9,66.4
0.261615,386.2,60.1,932.0,260.3,2241.6,163.1,395.4,902.9,2280.7,95.7,66.2
0.263615,396.9,83.8,928.4,290.5,2265.2,181.8,395.8,904.2,2281.4,95.6,65.9
0.265615,414.9,117.0,918.8,312.8,2296.3,183.3,396.3,905.3,2282,95.4,65.6
0.267615,434.3,159.9,906.4,313.1,2317.1,172.7,396.7,906.4,2282.6,95.2,65.2
0.269615,448.4,214.8,890.4,300.4,2325.2,162.8,397.2,907.3,2283.1,95,64.8
0.271615,444.5,282.3,871.5,269.4,2326.1,153.8,397.6,908,2283.5,94.8,64.3
0.273615,412.9,302.1,865.1,226.0,2324.9,141.5,398,908.7,2283.9,94.6,63.9
0.275615,384.0,256.7,871.0,197.8,2324.9,128.0,398.3,909.2,2284.2,94.5,63.5
0.277615,370.8,226.9,878.8,196.5,2323.4,123.5,398.6,909.6,2284.5,94.3,63.2
0.279615,362.0,237.0,887.7,223.1,2314.1,130.9,398.7,909.9,2284.6,94.1,63
0.281615,347.3,278.0,898.8,281.0,2299.6,144.4,398.9,910.1,2284.7,94,62.8
0.283615,325.7,307.2,918.5,377.7,2289.5,162.2,398.9,910.2,2284.8,93.8,62.7
