time,f1,b1,f2,b2,f3,b3,f1p,f2p,f3p,f0,intensity
0.025732,379.1,167.8,1153.7,207.6,1599.0,842.5,419.2,1067.8,1871.7,158.6,72.7
0.027732,389.3,139.5,1111.0,166.3,1656.4,701.5,419.2,1065.4,1878.4,158.7,72.9
0.029732,400.7,119.5,1085.9,135.2,1719.2,606.2,419.3,1061.5,1889.5,158.7,73.1
0.031732,410.7,103.8,1071.6,118.9,1780.3,532.6,419.4,1056.1,1904.8,158.7,73.2
0.033732,418.9,91.1,1060.5,114.1,1842.5,480.6,419.6,1049.3,1924,158.7,73.3
0.035732,425.0,82.6,1045.6,116.6,1909.6,442.2,419.7,1041.1,1947,158.8,73.4
0.037732,428.7,80.4,1022.9,121.8,1990.0,408.1,419.9,1031.7,1973.2,158.8,73.5
0.039732,430.3,84.1,998.0,125.2,2071.8,367.7,420.2,1021.1,2002.4,158.8,73.6
0.041732,430.7,89.7,975.3,126.0,2140.3,323.0,420.5,1009.6,2034.1,158.7,73.7
0.043732,430.4,93.3,958.7,125.3,2195.0,295.6,420.8,997.1,2067.9,158.7,73.8
0.045732,430.3,92.6,947.7,122.5,2249.6,280.1,421.2,984,2103.1,158.7,73.9
0.047732,430.2,87.3,939.7,115.9,2304.2,248.8,421.6,970.2,2139.5,158.6,73.9
0.049732,429.8,78.5,932.2,107.1,2339.8,212.9,422,956,2176.3,158.5,73.9
0.051732,429.5,69.7,924.6,101.2,2362.2,211.9,422.5,941.6,2213.1,158.4,73.9
0.053732,429.8,63.7,916.2,103.1,2386.8,251.3,423.1,927,2249.5,158.3,73.9
0.055732,430.2,61.5,906.7,114.0,2423.0,306.6,423.7,912.4,2284.9,158.2,73.9
0.057732,430.7,62.6,895.7,133.0,2454.7,303.5,424.3,898,2318.8,158,73.8
0.059732,431.4,66.4,882.4,160.1,2454.5,248.9,424.9,883.9,2350.9,157.8,73.8
0.061732,432.3,71.5,865.9,191.9,2442.7,206.9,425.6,870.3,2380.8,157.6,73.9
0.063732,433.5,75.8,847.5,214.5,2431.7,189.4,426.3,857.1,2408.1,157.4,73.9
0.065732,434.5,78.1,831.8,216.4,2422.6,190.1,427,844.6,2432.6,157.1,73.9
0.067732,434.6,77.6,821.3,201.5,2415.3,203.5,427.8,832.8,2454.1,156.8,73.9
0.069732,433.9,74.8,813.4,181.9,2410.3,229.8,428.5,821.9,2472.3,156.5,73.9
0.071732,433.3,72.7,805.5,167.3,2407.8,276.3,429.2,811.7,2487.3,156.2,73.8
0.073732,433.2,72.2,798.8,160.6,2408.5,348.9,429.9,802.5,2498.8,155.8,73.8
0.075732,433.8,71.9,795.9,158.8,2411.8,431.7,430.5,794.1,2507.1,155.4,73.7
0.077732,435.0,70.8,795.4,155.6,2413.0,467.7,431.1,786.7,2512.1,155,73.6
0.079732,435.8,69.1,793.5,147.6,2413.8,449.7,431.6,780.2,2514,154.5,73.5
0.081732,435.2,67.3,790.7,136.5,2425.2,408.4,432,774.5,2512.9,154,73.5
0.083732,434.5,67.9,789.3,127.2,2452.2,353.9,432.3,769.7,2509.2,153.5,73.5
0.085732,433.8,72.5,788.9,120.2,2476.1,294.0,432.5,765.7,2503,153,73.5
0.087732,433.0,79.1,788.2,112.7,2483.5,251.6,432.6,762.5,2494.8,152.4,73.6
0.089732,432.0,84.3,786.1,104.1,2478.8,228.3,432.6,759.9,2484.8,151.9,73.6
0.091732,430.0,86.2,781.2,93.5,2467.6,216.9,432.3,757.9,2473.3,151.3,73.6
0.093732,425.3,82.9,773.6,79.7,2452.8,212.2,432,756.4,2460.8,150.6,73.6
0.095732,418.8,74.5,765.1,65.1,2436.2,214.7,431.4,755.3,2447.6,150,73.5
0.097732,412.8,65.5,758.1,54.7,2415.0,234.6,430.7,754.5,2434.1,149.3,73.5
0.099732,408.5,60.6,753.6,51.2,2382.6,280.8,429.8,754,2420.7,148.6,73.4
0.101732,406.5,59.9,751.4,52.6,2345.0,333.7,428.7,753.7,2407.6,147.9,73.4
0.103732,406.7,60.7,749.9,54.7,2320.2,366.5,427.4,753.4,2395.2,147.2,73.5
0.105732,407.4,59.3,747.6,53.6,2313.0,379.6,425.9,753.1,2383.8,146.5,73.6
0.107732,407.8,54.3,744.3,48.7,2323.5,377.6,424.2,752.7,2373.6,145.7,73.7
0.109732,408.7,48.7,741.2,43.6,2356.9,348.8,422.3,752.1,2364.9,144.9,73.9
0.111732,410.6,45.2,739.1,41.4,2395.4,287.2,420.2,751.4,2357.7,144.1,74.1
0.113732,413.0,44.5,738.6,43.1,2422.2,228.0,418,750.4,2352.3,143.3,74.3
0.115732,415.5,44.4,738.7,47.1,2436.9,198.9,415.6,749.1,2348.6,142.5,74.4
0.117732,417.9,43.9,738.1,52.3,2444.9,193.8,413.1,747.5,2346.7,141.6,74.6
0.119732,419.3,43.7,736.3,59.7,2450.3,210.5,410.4,745.6,2346.5,140.8,74.6
0.121732,419.1,44.3,734.1,70.3,2458.0,243.0,407.6,743.4,2348.1,139.9,74.7
0.123732,418.3,45.2,732.8,83.8,2467.5,278.2,404.8,740.8,2351.2,139,74.6
0.125732,416.9,45.6,732.7,100.0,2468.4,311.0,401.8,737.9,2355.8,138.1,74.6
0.127732,414.1,45.6,732.4,118.1,2453.3,339.4,398.8,734.7,2361.6,137.1,74.5
0.129732,410.7,44.9,730.6,132.5,2427.2,342.7,395.8,731.3,2368.4,136.2,74.4
0.131732,407.3,43.6,726.7,137.4,2405.0,311.1,392.8,727.7,2375.9,135.3,74.3
0.133732,403.8,42.2,721.4,136.0,2394.2,269.8,389.8,723.9,2384,134.3,74.3
0.135732,400.1,41.2,717.1,133.6,2392.9,242.8,386.8,719.9,2392.4,133.3,74.3
0.137732,396.8,40.6,714.1,133.6,2399.8,239.0,383.9,716,2400.7,132.3,74.3
0.139732,392.5,40.4,709.6,138.3,2410.4,261.0,381.1,712,2408.7,131.4,74.4
0.141732,386.4,40.4,701.5,148.4,2411.7,305.6,378.4,708,2416.1,130.4,74.4
0.143732,381.0,41.4,692.5,159.1,2395.3,360.8,375.8,704.2,2422.7,129.4,74.4
0.145732,378.0,44.3,686.7,160.4,2362.8,419.5,373.4,700.5,2428.3,128.3,74.3
0.147732,375.9,49.7,684.2,150.4,2323.2,471.8,371.1,697,2432.6,127.3,74.1
0.149732,371.9,54.9,684.2,130.1,2294.8,492.5,369,693.8,2435.5,126.3,73.9
0.151732,367.8,55.5,687.3,104.3,2292.8,471.8,367.1,690.8,2436.8,125.3,73.6
0.153732,367.3,53.1,692.1,81.4,2306.9,433.7,365.4,688.1,2436.4,124.3,73.2
0.155732,368.2,52.7,697.2,67.5,2319.4,409.7,363.9,685.8,2434.3,123.3,72.8
0.157732,364.9,57.4,703.2,60.2,2327.3,412.9,362.7,683.9,2430.4,122.3,72.3
0.159732,357.5,67.3,709.6,56.7,2339.2,439.3,361.6,682.3,2424.9,121.3,71.9
0.161732,353.2,81.9,713.6,56.6,2370.0,452.8,360.8,681,2417.6,120.4,71.6
0.163732,354.3,100.6,713.3,61.5,2409.5,419.3,360.2,680.1,2408.8,119.4,71.5
0.165732,354.2,114.5,709.2,70.4,2432.3,390.5,359.8,679.6,2398.5,118.4,71.5
0.167732,351.3,114.5,703.2,80.5,2437.1,376.8,359.6,679.3,2387,117.5,71.5
0.169732,350.4,107.7,697.3,88.8,2435.4,340.8,359.6,679.4,2374.5,116.6,71.6
0.171732,350.4,101.4,691.7,90.9,2434.8,296.7,359.9,679.7,2361.1,115.7,71.6
0.173732,346.1,96.6,685.5,85.5,2433.1,264.4,360.3,680.1,2347.1,114.8,71.5
0.175732,334.7,88.9,680.2,74.3,2426.4,253.1,360.8,680.8,2332.8,113.9,71.3
0.177732,324.8,77.0,679.3,63.8,2411.8,261.2,361.6,681.5,2318.5,113,71.1
0.179732,324.2,69.2,681.7,60.2,2393.3,276.6,362.4,682.3,2304.4,112.2,70.9
0.181732,331.7,68.4,683.7,65.7,2378.9,291.4,363.4,683.1,2290.8,111.4,70.6
0.183732,343.6,69.2,681.0,84.2,2369.0,314.3,364.5,683.9,2278,110.6,70.4
0.185732,354.8,66.7,668.2,122.7,2359.6,359.5,365.7,684.6,2266.1,109.8,70.2
0.187732,364.3,65.3,644.2,178.4,2344.2,419.1,367,685.2,2255.5,109.1,70.1
0.189732,373.9,64.1,623.9,220.4,2297.2,458.6,368.3,685.6,2246.4,108.3,69.9
0.191732,383.5,60.1,621.9,232.3,2215.8,448.6,369.7,685.8,2238.8,107.6,69.7
0.193732,390.7,57.0,637.1,228.4,2150.6,433.1,371.1,685.7,2232.9,106.9,69.5
0.195732,393.5,57.0,655.8,216.7,2102.7,464.8,372.5,685.4,2228.9,106.2,69.1
0.197732,393.6,57.2,669.0,207.1,2079.7,535.3,373.9,684.8,2226.8,105.6,68.8
0.199732,394.8,53.9,679.7,205.8,2112.3,593.1,375.2,684,2226.5,104.9,68.6
0.201732,396.3,47.8,689.1,211.9,2184.3,567.8,376.6,682.8,2228.2,104.3,68.4
0.203732,395.2,43.0,693.7,231.9,2227.6,500.9,377.9,681.4,2231.6,103.7,68.4
0.205732,392.2,41.8,690.0,260.6,2233.0,471.0,379.2,679.8,2236.8,103.2,68.3
0.207732,390.8,42.7,683.1,286.5,2224.8,470.3,380.4,677.9,2243.5,102.6,68.3
0.209732,392.8,43.3,681.6,323.7,2224.2,477.1,381.6,675.8,2251.6,102.1,68.2
0.211732,397.2,41.9,689.4,401.3,2241.5,491.3,382.7,673.5,2261,101.6,68
0.213732,401.4,37.8,705.5,554.2,2277.7,537.3,383.7,671.1,2271.2,101.1,67.7
0.215732,403.7,32.5,719.1,806.7,2332.2,631.2,384.7,668.6,2282.2,100.6,67.3
0.217732,405.3,28.9,713.4,1125.9,2380.9,772.9,385.5,666.1,2293.7,100.1,66.9
0.219732,406.8,28.1,687.6,1335.6,2352.8,954.6,386.3,663.6,2305.4,99.7,66.3
0.221732,408.0,30.5,691.2,1250.0,2263.8,894.4,387.1,661.1,2316.9,99.3,65.7
0.223732,408.0,37.5,711.0,1031.8,2246.7,734.3,387.7,658.7,2328.2,98.9,65
0.225732,405.8,46.8,713.6,846.4,2268.3,630.1,388.3,656.5,2338.8,98.5,64.4
0.227732,403.1,51.7,707.0,740.0,2323.8,572.1,388.8,654.4,2348.5,98.2,63.7
0.229732,401.7,52.3,696.5,698.7,2396.3,496.2,389.2,652.6,2357.2,97.8,63.1
0.231732,400.8,54.1,683.2,731.8,2426.3,426.2,389.5,651.1,2364.5,97.5,62.6
0.233732,398.6,61.2,666.7,892.9,2417.6,423.4,389.8,649.9,2370.4,97.2,62
0.235732,392.4,75.7,641.5,1182.4,2392.1,501.3,389.9,649,2374.8,96.9,61.5
0.237732,383.8,94.8,592.6,1558.9,2384.8,638.9,390.1,648.5,2377.4,96.6,61
0.239732,175.9,2476.8,377.4,112.8,2383.3,1732.7,390.1,648.3,2378.3,96.4,60.4
