time,f1,b1,f2,b2,f3,b3,f1p,f2p,f3p,f0,intensity
0.025125,740.4,281.6,1175.8,262.9,2014.5,104.5,747.2,1190.4,2034.7,145.1,72.3
0.027125,748.9,263.4,1174.2,246.4,2015.4,94.4,746.6,1191.8,2032.4,145.1,73.4
0.029125,752.9,247.5,1179.4,223.2,2017.3,88.6,745.6,1194,2028.8,145,74.1
0.031125,749.1,233.9,1189.0,195.4,2019.3,84.2,744.2,1197.2,2023.8,145,74.6
0.033125,740.8,222.9,1198.4,170.6,2020.1,80.3,742.5,1201.3,2017.7,145,74.8
0.035125,734.0,218.7,1206.0,157.0,2017.3,80.6,740.4,1206.3,2010.7,145,74.9
0.037125,733.9,229.0,1212.2,159.0,2009.9,87.6,738.1,1212.2,2003.1,145,74.9
0.039125,737.9,248.5,1219.0,168.1,2000.1,97.7,735.4,1218.9,1995.1,145,74.9
0.041125,739.6,257.7,1228.6,171.2,1992.0,104.0,732.6,1226.5,1986.9,145.1,74.8
0.043125,735.1,245.0,1241.0,163.8,1987.9,102.3,729.5,1234.8,1978.9,145.1,74.8
0.045125,726.7,219.2,1254.2,150.3,1984.7,94.4,726.2,1244,1971.4,145.2,74.9
0.047125,719.1,191.4,1267.3,135.5,1979.8,85.4,722.8,1253.9,1964.6,145.2,75.1
0.049125,714.2,173.1,1280.1,124.2,1973.4,81.1,719.2,1264.6,1958.7,145.3,75.3
0.051125,709.7,165.9,1294.1,114.8,1965.3,80.1,715.5,1275.9,1953.9,145.4,75.6
0.053125,704.4,165.2,1308.5,103.4,1956.2,77.5,711.7,1287.8,1950.5,145.5,75.9
0.055125,701.1,163.5,1320.6,90.9,1948.9,72.8,707.7,1300.3,1948.5,145.7,76.2
0.057125,700.0,160.1,1330.7,80.1,1944.4,68.1,703.6,1313.2,1948.1,145.8,76.5
0.059125,699.2,157.0,1338.7,72.4,1943.7,64.5,699.3,1326.6,1949.2,146,76.7
0.061125,697.6,153.6,1344.7,67.7,1946.0,62.7,694.8,1340.3,1951.8,146.2,76.9
0.063125,695.5,151.6,1351.3,65.0,1949.6,64.4,690.1,1354.4,1955.9,146.4,76.9
0.065125,692.7,154.2,1360.4,64.2,1953.8,71.9,685.1,1368.7,1961.4,146.6,77
0.067125,688.5,158.7,1372.6,63.7,1959.6,84.2,679.9,1383.1,1968.2,146.8,77
0.069125,684.2,159.8,1386.2,62.2,1967.4,95.3,674.3,1397.6,1976,147,77
0.071125,678.6,160.7,1401.6,61.2,1978.9,103.3,668.4,1412.2,1984.8,147.3,77
0.073125,669.1,163.4,1418.4,61.4,1993.3,106.5,662.2,1426.8,1994.3,147.6,77
0.075125,658.1,165.6,1431.7,61.9,2005.1,104.7,655.6,1441.3,2004.3,147.9,77
0.077125,647.2,166.9,1441.3,62.7,2015.4,102.0,648.6,1455.8,2014.6,148.2,76.9
0.079125,635.3,167.2,1449.3,65.1,2026.5,99.5,641.2,1470.1,2025,148.5,76.8
0.081125,624.2,164.6,1456.9,68.5,2035.0,94.4,633.5,1484.2,2035.4,148.8,76.7
0.083125,614.9,160.2,1466.0,73.3,2040.4,87.3,625.5,1498.2,2045.6,149.1,76.6
0.085125,606.0,158.1,1479.3,82.1,2046.9,82.4,617.2,1512.1,2055.4,149.5,76.6
0.087125,598.4,159.7,1498.8,94.4,2056.9,82.1,608.6,1525.7,2064.9,149.8,76.5
0.089125,593.2,160.8,1526.6,106.1,2070.0,83.3,599.9,1539.2,2074,150.2,76.5
0.091125,588.6,158.5,1562.0,112.9,2085.2,84.0,591.1,1552.5,2082.5,150.5,76.5
0.093125,582.3,153.3,1596.1,113.3,2099.5,84.1,582.2,1565.6,2090.6,150.9,76.5
0.095125,574.7,147.2,1622.2,107.4,2110.3,83.7,573.4,1578.6,2098.3,151.3,76.5
0.097125,567.2,142.9,1637.0,97.6,2116.1,84.2,564.7,1591.4,2105.6,151.6,76.5
0.099125,559.7,140.2,1643.6,89.1,2118.0,86.5,556.2,1604,2112.7,152,76.5
0.101125,551.0,135.6,1647.8,82.0,2119.5,87.0,548,1616.4,2119.6,152.4,76.6
0.103125,542.5,128.1,1652.0,74.5,2123.5,82.6,540.2,1628.6,2126.5,152.8,76.6
0.105125,534.8,120.1,1657.5,67.2,2131.4,75.4,532.7,1640.6,2133.5,153.2,76.6
0.107125,529.2,115.5,1663.6,63.4,2141.8,70.3,525.7,1652.4,2140.6,153.6,76.7
0.109125,525.4,115.1,1668.7,62.7,2153.3,68.2,519.2,1663.8,2148.1,153.9,76.8
0.111125,521.9,118.3,1672.2,64.6,2165.0,68.5,513.2,1674.9,2155.9,154.3,76.9
0.113125,517.3,121.0,1675.0,67.7,2174.5,68.8,507.8,1685.5,2164.1,154.7,77
0.115125,511.7,120.1,1678.7,69.3,2181.6,66.9,502.8,1695.6,2172.8,155.1,77
0.117125,505.3,115.6,1684.4,67.1,2187.0,63.5,498.4,1705.2,2182,155.4,77
0.119125,498.4,109.8,1691.6,62.7,2191.5,62.6,494.4,1714,2191.7,155.8,77
0.121125,490.8,104.8,1699.8,58.6,2196.9,67.3,490.8,1722.2,2201.7,156.2,77
0.123125,483.7,101.9,1708.9,56.4,2205.5,80.0,487.6,1729.5,2212.1,156.5,76.9
0.125125,478.1,100.6,1717.6,56.0,2217.1,96.1,484.7,1735.8,2222.7,156.8,76.9
0.127125,473.6,99.0,1725.9,56.2,2228.6,107.9,481.9,1741.2,2233.5,157.2,76.9
0.129125,470.0,97.7,1733.1,56.9,2237.7,111.7,479.3,1745.5,2244.2,157.5,76.8
0.131125,466.6,97.7,1738.7,58.8,2245.8,109.9,476.7,1748.7,2254.8,157.8,76.8
0.133125,463.2,96.3,1743.1,61.4,2254.8,105.4,474.2,1750.8,2265,158.1,76.7
0.135125,460.6,90.3,1745.8,63.5,2262.0,101.4,471.5,1751.7,2274.8,158.3,76.7
0.137125,459.2,81.6,1746.8,63.8,2265.2,103.6,468.6,1751.4,2283.9,158.6,76.6
0.139125,458.3,73.8,1747.2,63.1,2267.1,114.7,465.6,1749.9,2292.4,158.9,76.6
0.141125,457.9,69.5,1747.9,62.2,2274.2,132.4,462.3,1747.4,2300,159.1,76.6
0.143125,458.2,68.7,1749.2,61.8,2293.7,149.7,458.8,1743.8,2306.6,159.3,76.6
0.145125,458.4,68.8,1750.3,61.9,2318.9,156.5,455,1739.3,2312.4,159.5,76.6
0.147125,457.7,67.9,1750.6,61.7,2340.4,154.3,451,1734,2317.1,159.7,76.7
0.149125,456.1,66.6,1750.4,61.3,2355.1,150.1,446.8,1728,2320.8,159.9,76.7
0.151125,453.6,65.7,1749.7,62.1,2362.3,147.4,442.4,1721.4,2323.6,160.1,76.7
0.153125,450.5,65.1,1747.3,64.7,2362.9,143.4,438,1714.4,2325.5,160.2,76.6
0.155125,447.3,65.9,1741.1,70.5,2356.5,133.7,433.5,1707.2,2326.6,160.4,76.5
0.157125,443.6,68.9,1730.0,79.7,2345.4,119.4,429,1700,2327.1,160.5,76.4
0.159125,438.4,72.6,1712.1,88.7,2333.7,105.1,424.7,1693,2326.9,160.6,76.3
0.161125,431.4,75.6,1689.2,88.9,2323.4,94.5,420.6,1686.2,2326.4,160.7,76.1
0.163125,423.4,77.6,1672.0,80.0,2315.4,90.8,416.9,1680,2325.5,160.8,75.8
0.165125,414.5,79.2,1662.7,70.0,2308.6,93.7,413.6,1674.4,2324.6,160.9,75.5
0.167125,406.2,81.5,1657.9,64.7,2303.5,100.4,410.7,1669.7,2323.5,160.9,75.1
0.169125,399.9,85.2,1653.1,66.6,2303.6,103.3,408.4,1665.8,2322.6,161,74.5
0.171125,394.5,87.9,1645.3,73.8,2310.3,96.0,406.7,1663,2321.9,161.1,73.9
0.173125,390.1,86.3,1635.3,82.1,2319.2,79.8,405.7,1661.3,2321.4,161.1,73.1
0.175125,387.8,84.8,1628.8,87.3,2311.4,1406.7,405.3,1660.7,2321.3,161.1,72.1
