time,f1,b1,f2,b2,f3,b3,f1p,f2p,f3p,f0,intensity
0.025286,512.5,186.6,1179.2,471.6,2233.9,93.9,514.8,1156.8,2251.3,142.2,75.6
0.027286,524.6,197.9,1171.0,476.0,2231.9,92.5,519.5,1158,2251.4,141.8,75.3
0.029286,537.6,203.8,1166.5,486.6,2236.8,97.2,527,1159.9,2251.5,141.4,75
0.031286,550.2,197.9,1164.7,496.6,2248.6,108.9,536.6,1162.3,2251.8,140.9,74.7
0.033286,560.3,184.9,1165.0,494.5,2263.9,122.7,547.6,1165.1,2252.3,140.4,74.6
0.035286,568.3,173.6,1165.3,481.1,2276.8,130.5,559.1,1168,2252.8,139.9,74.4
0.037286,572.9,165.8,1162.3,453.7,2279.2,124.0,570.2,1170.7,2253.6,139.3,74.4
0.039286,573.2,155.1,1155.9,404.2,2273.9,109.1,579.9,1173,2254.6,138.8,74.4
0.041286,569.8,140.1,1148.2,345.1,2266.2,97.3,587.6,1174.8,2255.8,138.2,74.5
0.043286,566.8,127.1,1143.6,305.1,2257.8,94.3,592.6,1175.8,2257.1,137.5,74.7
0.045286,567.4,120.1,1148.4,295.4,2249.9,99.3,594.5,1175.8,2258.5,136.9,74.8
0.047286,570.8,119.7,1166.8,319.8,2247.3,107.7,593.1,1175,2260,136.2,74.9
0.049286,574.1,121.6,1192.4,362.8,2251.9,109.9,588.6,1173.1,2261.3,135.5,75
0.051286,576.0,123.5,1208.1,389.5,2258.3,101.1,581.4,1170.3,2262.5,134.8,75.1
0.053286,575.9,124.4,1203.1,360.8,2262.4,85.5,571.9,1166.7,2263.4,134,75.1
0.055286,572.1,116.9,1180.0,270.0,2263.8,71.4,560.8,1162.5,2263.8,133.2,75.1
0.057286,565.9,97.6,1156.7,179.4,2263.9,65.9,549.1,1157.7,2263.8,132.4,75
0.059286,560.3,80.0,1142.1,129.0,2263.8,74.5,537.6,1152.6,2263.1,131.6,74.9
0.061286,553.5,73.8,1135.9,111.6,2263.5,103.1,527,1147.4,2261.8,130.8,74.8
0.063286,542.1,76.6,1134.8,108.8,2258.3,152.3,518.1,1142.2,2259.9,129.9,74.6
0.065286,529.1,81.8,1135.8,106.7,2243.7,180.5,511.3,1137.1,2257.3,129,74.3
0.067286,519.4,86.7,1135.3,101.4,2232.7,178.7,507.1,1132.3,2254.2,128.1,74
0.069286,511.2,94.2,1132.5,96.3,2236.3,168.8,505.3,1127.7,2250.7,127.2,73.7
0.071286,501.1,104.8,1129.1,91.8,2250.5,152.8,505.9,1123.4,2247,126.3,73.3
0.073286,491.3,114.6,1125.9,87.8,2262.1,130.4,508.4,1119.3,2243.1,125.3,72.9
0.075286,488.0,121.4,1121.5,88.4,2263.3,112.1,512.1,1115.3,2239.5,124.4,72.6
0.077286,491.6,129.7,1112.2,100.3,2256.7,104.8,516.3,1111.3,2236.1,123.4,72.4
0.079286,497.3,141.9,1096.1,128.6,2246.3,109.5,520,1107.3,2233.4,122.4,72.2
0.081286,500.8,155.2,1080.0,165.9,2238.0,118.2,522.3,1103.1,2231.3,121.4,72.1
0.083286,503.1,170.2,1071.7,205.2,2234.4,121.5,522.3,1098.7,2230.2,120.4,72
0.085286,507.5,190.1,1074.8,245.8,2232.6,119.6,519.4,1094.1,2229.9,119.4,71.9
0.087286,515.0,211.8,1086.1,283.7,2226.9,120.3,512.9,1089.3,2230.7,118.4,71.8
0.089286,518.8,221.7,1096.9,295.2,2218.6,126.5,502.6,1084.5,2232.4,117.3,71.8
0.091286,512.0,219.0,1099.4,274.8,2211.7,139.9,488.5,1079.7,2234.9,116.3,71.6
0.093286,494.6,213.0,1095.5,238.7,2209.0,159.1,470.7,1075.2,2238.2,115.3,71.5
0.095286,466.7,210.7,1088.7,203.3,2211.0,187.0,449.9,1071.3,2242,114.3,71.3
0.097286,433.3,210.1,1078.2,183.9,2221.6,234.2,426.7,1068.2,2246,113.2,71.1
0.099286,407.8,212.7,1066.2,186.7,2249.3,292.3,402.1,1066.2,2250.1,112.2,70.9
0.101286,386.2,220.4,1057.8,199.7,2287.9,310.8,377.2,1065.6,2253.9,111.2,70.6
0.103286,361.3,225.3,1059.4,205.0,2299.0,278.7,352.8,1066.6,2257.2,110.2,70.4
0.105286,331.9,231.1,1075.0,200.9,2291.8,244.1,330.2,1069.5,2259.8,109.2,70
0.107286,306.5,237.6,1089.2,193.1,2281.7,227.2,310.1,1074.2,2261.6,108.2,69.7
0.109286,293.2,238.6,1088.5,193.9,2269.9,200.0,293.4,1080.9,2262.3,107.3,69.2
0.111286,284.5,254.9,1083.3,222.9,2258.7,134.6,280.4,1089.3,2262,106.3,68.7
0.113286,275.0,331.3,1087.0,324.5,2249.7,85.2,271.5,1099.2,2260.7,105.4,68.2
0.115286,260.9,487.6,1095.0,532.6,2242.3,66.3,266.5,1110.4,2258.5,104.5,67.5
0.117286,248.5,641.1,1096.1,756.0,2237.0,60.6,265.2,1122.4,2255.5,103.7,66.8
0.119286,245.7,667.6,1113.2,831.7,2234.1,59.1,266.9,1134.8,2252,102.8,66.1
0.121286,228.0,619.0,1143.0,719.7,2234.2,64.3,271,1147.1,2248.1,102,65.4
0.123286,211.7,590.3,1167.8,566.3,2236.2,81.0,276.6,1158.6,2244.3,101.3,64.7
0.125286,232.6,583.0,1180.8,479.1,2236.2,110.7,282.7,1168.9,2240.6,100.6,64.1
0.127286,293.6,543.6,1187.1,458.5,2232.5,130.1,288.6,1177.4,2237.5,99.9,63.4
0.129286,345.7,487.2,1190.8,470.3,2233.4,123.8,293.4,1183.8,2235.1,99.2,62.6
0.131286,358.3,486.1,1189.4,507.3,2244.9,113.1,296.5,1187.8,2233.6,98.6,61.7
0.133286,334.8,573.0,1197.9,536.4,2266.8,118.6,297.6,1189.2,2233.1,98,60.8
