time,f1,b1,f2,b2,f3,b3,f1p,f2p,f3p,f0,intensity
0.025546,440.0,64.4,902.7,197.0,2278.3,96.2,480,991.3,2280.4,145.1,77.7
0.027546,441.3,65.0,908.0,153.2,2273.1,84.1,480.1,991.4,2280.5,145,77.6
0.029546,443.5,68.1,912.7,125.0,2270.5,71.8,480.3,991.4,2280.6,144.9,77.3
0.031546,446.9,75.7,916.7,114.3,2271.2,62.0,480.6,991.5,2280.9,144.9,76.9
0.033546,451.5,90.7,921.3,119.2,2273.5,55.7,481,991.6,2281.2,144.8,76.5
0.035546,455.8,111.3,927.1,133.7,2274.8,52.1,481.4,991.7,2281.6,144.7,76
0.037546,459.8,132.2,935.7,149.0,2274.4,49.0,481.9,991.8,2282,144.7,75.4
0.039546,464.3,145.8,948.4,156.9,2274.1,46.0,482.5,991.9,2282.6,144.6,74.8
0.041546,469.8,153.1,963.9,159.0,2275.4,43.0,483.2,992.1,2283.1,144.5,74.3
0.043546,474.7,155.0,978.2,157.2,2278.4,40.1,484,992.3,2283.8,144.5,74
0.045546,478.2,153.0,988.8,152.5,2281.9,38.0,484.8,992.5,2284.5,144.4,73.7
0.047546,481.5,150.5,997.2,147.4,2285.9,37.0,485.7,992.7,2285.3,144.4,73.6
0.049546,484.4,149.2,1002.3,143.3,2288.9,36.5,486.7,993,2286.1,144.4,73.7
0.051546,487.3,149.2,1004.0,138.8,2289.5,35.4,487.7,993.2,2287.1,144.4,73.7
0.053546,491.2,152.3,1005.1,134.9,2289.1,34.4,488.8,993.5,2288,144.3,73.8
0.055546,496.3,158.2,1007.5,132.5,2289.6,34.4,489.9,993.9,2289.1,144.3,73.9
0.057546,500.2,161.6,1010.2,127.7,2291.4,34.4,491.1,994.2,2290.2,144.3,73.9
0.059546,502.4,159.4,1011.8,116.3,2293.3,33.0,492.4,994.6,2291.3,144.4,74
0.061546,504.2,154.2,1012.9,101.4,2294.1,31.0,493.7,995,2292.5,144.4,74
0.063546,506.1,148.5,1013.6,89.3,2293.6,29.5,495,995.4,2293.8,144.4,74
0.065546,508.0,143.4,1013.8,80.3,2292.8,28.6,496.4,995.9,2295.1,144.5,74
0.067546,510.3,141.3,1014.1,74.9,2293.4,28.1,497.8,996.4,2296.4,144.5,74
0.069546,512.4,142.5,1014.9,72.8,2295.4,28.4,499.3,996.9,2297.9,144.6,74
0.071546,514.0,142.5,1015.8,71.7,2297.5,28.6,500.7,997.5,2299.3,144.7,73.9
0.073546,515.2,138.8,1016.2,69.3,2298.8,28.3,502.2,998.1,2300.8,144.7,73.8
0.075546,516.0,134.6,1016.7,66.3,2300.0,28.2,503.8,998.7,2302.4,144.8,73.6
0.077546,516.4,133.3,1018.1,65.5,2302.0,29.3,505.3,999.4,2304,144.9,73.5
0.079546,517.1,132.5,1020.6,65.7,2305.0,31.2,506.9,1000.1,2305.6,145,73.4
0.081546,519.0,129.8,1023.7,65.0,2308.3,32.6,508.4,1000.8,2307.3,145.1,73.4
0.083546,521.5,126.0,1026.6,64.0,2310.9,33.3,510,1001.6,2309,145.2,73.4
0.085546,524.3,122.1,1029.4,63.8,2312.6,33.5,511.6,1002.4,2310.7,145.3,73.5
0.087546,527.4,118.9,1032.0,64.9,2313.4,33.9,513.1,1003.2,2312.5,145.4,73.6
0.089546,530.2,116.8,1034.2,68.3,2313.5,35.2,514.7,1004.1,2314.2,145.6,73.6
0.091546,532.1,114.7,1035.8,74.0,2312.9,37.1,516.2,1005,2316.1,145.7,73.7
0.093546,534.4,112.3,1037.1,81.2,2312.9,38.6,517.8,1006,2317.9,145.8,73.7
0.095546,537.7,112.4,1038.8,91.0,2315.3,39.5,519.3,1006.9,2319.8,145.9,73.6
0.097546,540.7,114.7,1040.7,104.7,2319.9,39.9,520.8,1008,2321.6,146.1,73.6
0.099546,542.2,113.1,1042.3,115.6,2324.0,39.2,522.2,1009,2323.5,146.2,73.5
0.101546,542.7,107.1,1043.7,118.9,2326.2,37.6,523.6,1010.1,2325.4,146.3,73.4
0.103546,543.4,102.3,1044.9,121.7,2327.9,36.8,525,1011.3,2327.4,146.4,73.4
0.105546,543.9,100.4,1045.0,127.6,2328.8,37.2,526.4,1012.4,2329.3,146.6,73.3
0.107546,544.4,99.1,1044.0,131.4,2328.2,38.0,527.7,1013.6,2331.2,146.7,73.2
0.109546,544.6,97.6,1042.7,130.5,2326.6,39.5,529,1014.9,2333.2,146.8,73.1
0.111546,544.0,96.1,1041.5,126.8,2326.2,41.8,530.3,1016.1,2335.1,147,73.1
0.113546,543.3,93.4,1040.7,120.8,2329.1,43.5,531.5,1017.4,2337,147.1,73.1
0.115546,543.4,89.3,1040.4,113.5,2335.5,43.7,532.6,1018.8,2338.9,147.2,73.1
0.117546,543.8,84.7,1039.9,106.4,2343.5,44.3,533.7,1020.1,2340.9,147.4,73.1
0.119546,543.6,80.1,1039.0,99.5,2350.8,46.2,534.8,1021.5,2342.8,147.5,73.1
0.121546,543.2,75.4,1038.1,90.8,2357.8,48.8,535.7,1022.9,2344.7,147.6,73.1
0.123546,542.5,72.0,1037.2,82.7,2365.0,51.7,536.7,1024.4,2346.5,147.7,73.1
0.125546,541.5,70.5,1036.2,78.5,2372.3,54.3,537.6,1025.8,2348.4,147.8,73.1
0.127546,541.5,70.7,1035.8,79.4,2377.1,56.5,538.4,1027.3,2350.2,148,73.1
0.129546,542.7,72.4,1036.9,84.8,2378.4,60.3,539.2,1028.8,2352,148.1,73.1
0.131546,544.1,74.7,1039.2,92.9,2377.4,67.4,539.9,1030.3,2353.8,148.2,73
0.133546,544.9,75.8,1041.8,98.5,2376.8,75.8,540.5,1031.9,2355.6,148.3,73
0.135546,545.2,75.6,1043.5,99.1,2379.2,81.8,541.1,1033.4,2357.3,148.3,72.9
0.137546,544.2,75.4,1043.6,97.5,2383.6,84.1,541.6,1035,2359,148.4,72.8
0.139546,542.3,74.7,1042.4,96.6,2386.0,82.8,542.1,1036.5,2360.7,148.5,72.7
0.141546,541.0,73.6,1041.5,98.7,2384.9,79.2,542.5,1038.1,2362.3,148.6,72.5
0.143546,540.2,74.3,1042.4,106.9,2382.0,74.8,542.9,1039.7,2363.9,148.7,72.3
0.145546,538.9,77.1,1044.3,121.1,2379.3,69.5,543.2,1041.2,2365.4,148.7,72.2
0.147546,537.0,79.7,1045.8,134.2,2377.4,63.2,543.5,1042.8,2367,148.8,72
0.149546,534.8,81.1,1046.5,140.0,2376.8,57.8,543.7,1044.3,2368.4,148.8,71.8
0.151546,531.3,82.4,1046.6,141.4,2377.0,54.2,543.8,1045.9,2369.8,148.9,71.7
0.153546,527.9,84.2,1046.4,142.6,2376.5,52.8,543.9,1047.4,2371.2,148.9,71.7
0.155546,526.3,86.2,1046.3,145.6,2374.4,53.3,544,1049,2372.5,148.9,71.6
0.157546,526.5,87.5,1046.4,149.2,2371.3,55.0,544,1050.5,2373.8,149,71.6
0.159546,527.9,87.8,1047.5,151.7,2367.9,57.3,543.9,1052,2375,149,71.7
0.161546,530.2,88.5,1050.3,155.6,2365.9,59.5,543.9,1053.4,2376.1,149,71.6
0.163546,532.0,91.8,1054.5,166.0,2367.4,62.1,543.7,1054.9,2377.3,149,71.6
0.165546,531.5,96.6,1057.5,181.8,2372.1,64.6,543.6,1056.3,2378.3,149,71.5
0.167546,529.5,98.9,1056.7,192.0,2376.6,64.8,543.4,1057.7,2379.3,149.1,71.4
0.169546,527.7,98.0,1052.8,189.7,2378.9,63.3,543.2,1059.1,2380.2,149.1,71.3
0.171546,527.1,95.5,1049.9,177.9,2378.9,62.6,542.9,1060.4,2381.1,149.1,71.3
0.173546,528.3,92.5,1049.6,165.9,2377.5,61.8,542.7,1061.7,2381.9,149,71.2
0.175546,530.7,90.5,1050.3,159.8,2375.9,58.0,542.4,1062.9,2382.7,149,71.2
0.177546,532.4,90.6,1049.8,162.2,2375.0,52.2,542,1064.1,2383.4,149,71.1
0.179546,532.7,91.1,1047.4,169.8,2374.0,46.7,541.7,1065.3,2384.1,149,71.1
0.181546,531.9,88.9,1044.2,173.0,2372.6,43.2,541.4,1066.4,2384.6,149,71
0.183546,530.2,86.8,1042.4,174.3,2372.1,42.7,541,1067.5,2385.2,149,70.9
0.185546,527.7,87.8,1042.2,179.5,2373.4,45.4,540.6,1068.6,2385.6,148.9,70.9
0.187546,525.3,89.9,1042.3,184.6,2375.8,49.1,540.3,1069.5,2386.1,148.9,70.8
0.189546,524.6,90.6,1042.2,184.4,2377.3,50.4,539.9,1070.5,2386.4,148.9,70.9
0.191546,525.6,90.9,1043.1,182.5,2377.8,49.2,539.5,1071.4,2386.7,148.8,71
0.193546,528.3,92.0,1046.3,183.7,2378.3,47.4,539.1,1072.2,2387,148.8,71.1
0.195546,532.2,93.5,1050.9,187.9,2379.4,46.3,538.8,1073,2387.2,148.8,71.3
0.197546,536.2,95.7,1056.1,196.1,2381.3,46.8,538.4,1073.7,2387.3,148.7,71.4
0.199546,539.2,97.9,1060.1,205.7,2383.1,48.1,538.1,1074.4,2387.4,148.7,71.6
0.201546,540.9,99.1,1061.9,210.3,2383.4,48.9,537.7,1075,2387.4,148.6,71.7
0.203546,540.5,100.0,1061.7,209.2,2382.0,49.1,537.4,1075.6,2387.4,148.5,71.8
0.205546,538.2,100.1,1060.5,203.4,2380.0,48.2,537.1,1076.1,2387.4,148.5,71.8
0.207546,536.1,96.8,1059.5,192.5,2378.0,45.4,536.8,1076.6,2387.2,148.4,71.8
0.209546,535.7,91.2,1059.8,182.6,2376.5,41.7,536.5,1077,2387.1,148.4,71.7
0.211546,536.2,87.1,1060.8,182.9,2375.9,39.1,536.3,1077.3,2386.9,148.3,71.6
0.213546,536.9,86.2,1061.7,195.8,2376.1,38.6,536.1,1077.7,2386.7,148.2,71.5
0.215546,538.5,87.6,1062.7,214.0,2376.4,39.9,535.9,1077.9,2386.4,148.1,71.3
0.217546,541.0,90.9,1065.4,233.0,2376.5,42.4,535.7,1078.2,2386.1,148,71.2
0.219546,543.0,94.3,1068.9,245.3,2376.8,43.9,535.6,1078.3,2385.8,148,71
0.221546,543.3,95.3,1070.2,244.6,2376.6,42.7,535.4,1078.5,2385.4,147.9,70.9
0.223546,541.8,94.4,1068.6,237.8,2375.0,40.1,535.4,1078.6,2385,147.8,70.8
0.225546,538.5,93.7,1065.1,234.1,2372.1,38.2,535.3,1078.7,2384.6,147.7,70.7
0.227546,535.7,93.4,1060.0,234.3,2369.6,37.1,535.3,1078.7,2384.1,147.6,70.6
0.229546,534.7,93.2,1054.1,234.1,2368.7,36.2,535.2,1078.7,2383.7,147.4,70.4
0.231546,534.8,93.9,1048.8,233.5,2369.3,35.8,535.3,1078.7,2383.2,147.3,70.3
0.233546,535.0,95.8,1047.0,235.5,2370.9,36.7,535.3,1078.6,2382.7,147.2,70.2
0.235546,535.7,98.5,1051.0,243.1,2372.3,39.6,535.4,1078.6,2382.2,147.1,70.2
0.237546,536.6,101.3,1058.7,254.5,2371.6,43.8,535.5,1078.5,2381.7,146.9,70.3
0.239546,536.7,102.2,1065.2,261.3,2369.3,47.6,535.6,1078.4,2381.1,146.8,70.4
0.241546,536.6,101.3,1068.6,260.1,2367.6,50.3,535.7,1078.3,2380.6,146.6,70.7
0.243546,536.2,101.5,1069.6,257.6,2367.1,54.4,535.9,1078.2,2380.1,146.5,70.9
0.245546,534.8,104.1,1068.9,259.0,2367.1,63.2,536.1,1078.1,2379.6,146.3,71.1
0.247546,533.4,106.3,1067.4,261.6,2367.0,75.4,536.3,1077.9,2379,146.2,71.2
0.249546,534.2,104.8,1066.6,261.6,2367.2,84.7,536.5,1077.8,2378.5,146,71.3
0.251546,537.1,100.5,1066.5,261.6,2367.2,87.8,536.7,1077.7,2378,145.8,71.4
0.253546,540.6,95.1,1066.8,261.3,2365.5,87.0,537,1077.7,2377.5,145.6,71.4
0.255546,543.6,89.6,1068.2,254.5,2361.8,85.1,537.2,1077.6,2377.1,145.4,71.4
0.257546,545.7,85.2,1072.4,241.7,2357.7,84.4,537.5,1077.6,2376.6,145.2,71.4
0.259546,546.6,82.3,1078.2,227.6,2356.3,86.1,537.7,1077.5,2376.2,145,71.4
0.261546,547.1,79.9,1082.8,211.9,2359.6,88.2,538,1077.6,2375.8,144.8,71.4
0.263546,548.4,76.1,1086.7,191.3,2368.4,88.0,538.2,1077.6,2375.4,144.6,71.4
0.265546,550.2,71.6,1090.8,168.7,2381.9,83.8,538.5,1077.7,2375,144.4,71.4
0.267546,551.6,67.4,1094.4,147.6,2396.0,76.2,538.7,1077.8,2374.7,144.2,71.3
0.269546,552.2,64.0,1096.8,130.4,2406.4,68.7,538.9,1078,2374.4,144,71.2
0.271546,551.2,61.7,1098.1,119.3,2412.0,64.4,539.1,1078.3,2374.2,143.8,71.2
0.273546,548.5,60.6,1097.6,112.8,2412.9,63.1,539.3,1078.6,2374,143.6,71.1
0.275546,546.1,59.4,1095.7,106.9,2409.4,62.3,539.5,1078.9,2373.8,143.4,71
0.277546,545.9,57.2,1094.8,96.8,2404.4,59.6,539.6,1079.4,2373.7,143.2,70.8
0.279546,547.2,54.4,1096.9,84.2,2400.6,55.9,539.7,1079.8,2373.6,143,70.7
0.281546,549.1,52.2,1100.5,73.3,2398.7,53.4,539.8,1080.4,2373.6,142.8,70.5
0.283546,551.4,50.6,1104.4,64.3,2397.8,52.3,539.8,1081,2373.6,142.6,70.4
0.285546,552.7,49.8,1108.4,57.0,2397.1,53.5,539.8,1081.7,2373.6,142.5,70.2
0.287546,551.5,49.5,1111.3,50.9,2396.1,58.0,539.8,1082.5,2373.7,142.3,70.1
0.289546,549.6,49.4,1112.3,46.6,2395.0,64.9,539.7,1083.4,2373.8,142.1,70
0.291546,548.4,49.7,1112.3,43.7,2393.3,72.6,539.5,1084.3,2374,141.9,69.9
0.293546,546.5,51.6,1112.5,42.6,2391.6,78.6,539.3,1085.4,2374.3,141.8,69.8
0.295546,543.5,55.6,1113.3,43.4,2392.9,82.0,539.1,1086.5,2374.6,141.6,69.6
0.297546,541.9,61.0,1114.9,45.2,2399.3,83.8,538.7,1087.7,2374.9,141.5,69.5
0.299546,542.5,66.3,1117.1,46.8,2407.4,88.5,538.4,1089,2375.3,141.3,69.2
0.301546,543.5,71.3,1119.5,48.4,2414.9,100.8,537.9,1090.3,2375.8,141.2,69
0.303546,544.1,74.7,1121.0,49.9,2418.2,116.4,537.4,1091.8,2376.2,141,68.7
0.305546,545.1,75.6,1121.6,50.9,2412.9,122.8,536.8,1093.4,2376.8,140.9,68.3
0.307546,546.5,74.9,1121.9,52.1,2400.4,115.6,536.2,1095,2377.4,140.8,67.9
0.309546,547.5,73.7,1122.4,54.0,2389.9,105.9,535.5,1096.7,2378,140.7,67.6
0.311546,547.5,73.6,1123.8,56.2,2386.3,104.6,534.7,1098.5,2378.7,140.6,67.2
0.313546,546.3,76.2,1127.0,58.9,2389.2,115.5,533.8,1100.4,2379.4,140.5,66.9
0.315546,543.1,81.6,1132.0,63.1,2392.9,131.6,532.8,1102.4,2380.2,140.4,66.7
0.317546,538.8,87.2,1138.2,67.4,2392.2,137.1,531.8,1104.5,2381,140.3,66.4
0.319546,535.0,91.9,1144.2,71.1,2386.5,126.7,530.7,1106.6,2381.8,140.2,66.1
0.321546,530.5,98.6,1148.5,77.1,2377.2,108.7,529.5,1108.8,2382.7,140.1,65.8
0.323546,523.3,107.4,1148.5,86.3,2368.2,92.4,528.2,1111.1,2383.6,140,65.5
0.325546,514.7,117.4,1144.9,94.5,2363.7,80.6,526.9,1113.5,2384.6,139.9,65.1
0.327546,508.2,129.4,1142.6,96.9,2365.0,74.1,525.5,1115.9,2385.5,139.8,64.7
0.329546,504.1,148.1,1144.4,93.4,2370.8,72.5,524,1118.4,2386.5,139.7,64.3
0.331546,500.5,170.9,1146.9,85.8,2377.3,74.2,522.4,1120.9,2387.6,139.6,64
0.333546,495.4,190.1,1146.9,77.0,2380.1,76.8,520.7,1123.5,2388.6,139.5,63.8
0.335546,488.3,199.9,1144.4,69.2,2376.2,79.6,519,1126.1,2389.7,139.4,63.7
0.337546,481.4,198.7,1141.5,63.1,2367.6,81.9,517.2,1128.8,2390.7,139.3,63.7
0.339546,476.6,191.7,1139.9,58.3,2359.7,83.8,515.3,1131.5,2391.8,139.2,63.7
0.341546,475.9,186.4,1140.6,56.2,2357.3,89.1,513.3,1134.3,2392.9,139.1,63.8
0.343546,479.2,183.1,1143.0,57.6,2360.1,100.4,511.3,1137,2394,139,63.8
0.345546,483.0,177.9,1146.9,61.2,2365.0,112.6,509.2,1139.8,2395.1,138.9,63.7
0.347546,484.3,171.8,1151.5,64.0,2367.0,115.6,507,1142.6,2396.2,138.8,63.6
0.349546,483.4,168.4,1155.9,67.2,2366.6,110.4,504.8,1145.4,2397.3,138.6,63.6
0.351546,481.2,170.4,1158.3,74.1,2368.4,105.7,502.5,1148.2,2398.4,138.5,63.5
0.353546,479.1,179.4,1158.7,84.8,2375.7,105.2,500.2,1150.9,2399.5,138.4,63.4
0.355546,479.6,193.3,1158.4,95.2,2387.4,105.5,497.8,1153.7,2400.5,138.2,63.4
0.357546,483.6,206.3,1157.8,104.2,2401.0,102.8,495.4,1156.4,2401.5,138.1,63.3
0.359546,488.8,209.9,1156.7,109.6,2410.2,97.5,492.9,1159.1,2402.5,137.9,63.3
0.361546,491.4,206.9,1155.9,110.9,2412.2,93.7,490.4,1161.8,2403.5,137.7,63.3
0.363546,491.3,205.0,1156.1,113.1,2409.0,95.9,487.8,1164.4,2404.4,137.6,63.2
0.365546,490.1,204.5,1156.0,120.8,2403.0,104.7,485.2,1166.9,2405.3,137.4,63.2
0.367546,488.3,199.7,1153.8,130.9,2395.5,116.8,482.6,1169.4,2406.1,137.2,63.2
0.369546,487.4,187.4,1150.1,135.3,2391.5,126.8,480,1171.8,2406.9,137,63.2
0.371546,489.3,171.0,1146.9,136.7,2396.9,137.5,477.3,1174.1,2407.7,136.8,63.3
0.373546,493.7,158.0,1144.1,143.0,2412.4,150.2,474.6,1176.3,2408.4,136.6,63.4
0.375546,497.5,155.0,1140.8,153.9,2426.2,153.7,472,1178.5,2409,136.4,63.4
0.377546,498.3,163.1,1136.7,170.3,2428.0,143.1,469.3,1180.5,2409.6,136.2,63.4
0.379546,493.7,179.3,1131.2,194.6,2421.2,125.6,466.6,1182.4,2410.1,136,63.5
0.381546,484.1,192.2,1122.5,218.3,2414.9,109.4,464,1184.2,2410.5,135.7,63.5
0.383546,474.1,190.7,1113.5,222.3,2412.2,97.5,461.3,1185.9,2410.8,135.5,63.5
0.385546,468.0,180.2,1109.2,210.9,2413.8,91.4,458.7,1187.5,2411.1,135.3,63.4
0.387546,465.7,171.1,1108.3,203.3,2419.1,92.0,456.1,1188.9,2411.3,135,63.3
0.389546,465.8,170.4,1107.1,206.2,2424.2,97.5,453.5,1190.1,2411.4,134.8,63.2
0.391546,466.4,176.8,1106.2,211.9,2423.9,101.6,450.9,1191.2,2411.5,134.5,63
0.393546,466.9,185.5,1108.2,217.2,2417.2,102.6,448.4,1192.2,2411.4,134.3,62.7
0.395546,466.7,192.9,1112.8,226.4,2405.9,104.3,445.9,1193,2411.3,134,62.5
0.397546,464.2,196.0,1117.4,236.7,2394.2,107.7,443.5,1193.6,2411,133.8,62.4
0.399546,457.5,193.9,1123.0,233.1,2385.1,108.1,441.1,1194,2410.7,133.5,62.3
0.401546,447.3,186.2,1129.8,210.1,2377.9,104.9,438.8,1194.3,2410.3,133.3,62.5
0.403546,438.7,181.6,1133.9,186.8,2373.0,103.2,436.5,1194.4,2409.8,133,62.7
0.405546,433.2,185.6,1137.9,170.2,2372.5,105.9,434.3,1194.3,2409.1,132.8,63
0.407546,429.7,195.8,1147.0,158.0,2377.8,115.3,432.2,1194,2408.4,132.5,63.2
0.409546,425.1,206.2,1161.7,145.6,2389.1,130.5,430.1,1193.5,2407.6,132.3,63.3
0.411546,418.3,211.8,1173.9,131.0,2403.5,144.9,428.1,1192.8,2406.7,132,63.3
0.413546,411.5,214.2,1178.2,118.9,2415.1,154.3,426.2,1191.9,2405.6,131.8,63.3
0.415546,405.8,216.8,1179.1,113.8,2422.9,161.7,424.4,1190.9,2404.5,131.5,63.3
0.417546,400.9,214.6,1180.8,118.8,2425.0,168.4,422.7,1189.6,2403.3,131.3,63.3
0.419546,396.8,204.5,1182.1,129.5,2418.5,169.9,421,1188.1,2401.9,131.1,63.3
0.421546,394.9,194.8,1179.4,136.4,2408.2,160.5,419.4,1186.4,2400.5,130.8,63.3
0.423546,397.9,190.4,1173.3,141.3,2402.4,139.5,418,1184.6,2399,130.6,63.2
0.425546,406.7,190.6,1166.5,152.4,2402.0,114.8,416.6,1182.5,2397.3,130.3,63.1
0.427546,416.1,192.5,1160.4,165.3,2398.2,96.1,415.3,1180.2,2395.6,130.1,62.9
0.429546,422.2,192.8,1156.8,165.3,2387.2,86.0,414.1,1177.7,2393.8,129.8,62.6
0.431546,427.1,188.9,1157.1,152.5,2371.5,82.9,413.1,1175.1,2391.8,129.6,62.2
0.433546,433.6,180.0,1160.0,134.3,2354.5,84.3,412.1,1172.3,2389.8,129.4,61.9
0.435546,438.5,170.9,1162.6,117.8,2346.4,88.6,411.2,1169.2,2387.7,129.2,61.6
0.437546,437.1,169.6,1164.4,107.3,2354.8,95.1,410.4,1166,2385.5,128.9,61.5
0.439546,427.0,179.2,1165.4,105.9,2376.8,103.8,409.7,1162.6,2383.2,128.7,61.4
0.441546,412.0,197.3,1165.3,114.8,2402.2,114.3,409.1,1159.1,2380.9,128.5,61.4
0.443546,399.2,225.0,1164.6,132.1,2422.4,122.0,408.6,1155.3,2378.4,128.3,61.4
0.445546,393.3,257.3,1164.9,146.7,2421.0,121.3,408.2,1151.5,2375.9,128.1,61.4
0.447546,393.3,276.1,1166.0,146.2,2392.5,111.4,407.9,1147.4,2373.3,127.9,61.2
0.449546,397.7,269.2,1167.2,131.7,2357.5,91.4,407.7,1143.2,2370.7,127.7,61
0.451546,401.2,253.7,1168.1,118.6,2336.8,76.6,407.6,1138.9,2368,127.5,60.8
0.453546,402.4,244.5,1170.1,114.7,2329.4,74.6,407.6,1134.5,2365.2,127.4,60.6
0.455546,403.4,241.5,1176.4,122.3,2335.7,88.3,407.7,1129.9,2362.4,127.2,60.5
0.457546,405.2,243.4,1188.0,137.5,2358.4,107.3,407.9,1125.2,2359.5,127.1,60.5
0.459546,406.1,250.1,1198.9,148.1,2379.5,104.0,408.1,1120.4,2356.6,127,60.4
0.461546,405.1,253.1,1202.2,150.2,2381.1,92.7,408.4,1115.5,2353.6,126.8,60.3
0.463546,403.5,244.6,1198.3,153.2,2371.0,91.7,408.8,1110.6,2350.6,126.7,60.2
0.465546,402.7,229.8,1193.5,168.3,2360.6,99.2,409.3,1105.5,2347.6,126.7,60.1
0.467546,400.7,219.9,1191.0,196.9,2355.8,111.5,409.9,1100.4,2344.6,126.6,60
0.469546,398.5,222.1,1189.5,233.1,2358.2,123.0,410.5,1095.2,2341.5,126.5,59.8
0.471546,400.0,239.3,1186.3,285.2,2368.6,127.0,411.2,1090,2338.5,126.5,59.7
0.473546,408.4,263.2,1181.9,346.4,2384.3,119.2,411.9,1084.8,2335.4,126.4,59.6
0.475546,420.0,284.5,1185.3,387.5,2399.0,108.5,412.7,1079.5,2332.3,126.4,59.5
0.477546,427.8,299.8,1192.8,379.6,2407.1,107.5,413.5,1074.2,2329.2,126.4,59.5
0.479546,427.4,297.5,1186.4,323.6,2405.3,122.8,414.4,1068.9,2326.2,126.4,59.6
0.481546,420.6,267.0,1168.2,249.7,2390.4,160.3,415.4,1063.7,2323.1,126.4,59.7
0.483546,412.9,230.3,1152.5,201.1,2359.0,212.0,416.3,1058.4,2320.1,126.4,59.8
0.485546,408.7,211.3,1144.9,192.0,2317.9,250.4,417.3,1053.2,2317.1,126.4,60
0.487546,410.0,205.2,1142.8,219.2,2287.3,268.7,418.3,1048,2314.2,126.4,60.2
0.489546,415.1,199.9,1138.6,274.3,2277.4,281.4,419.4,1042.9,2311.3,126.5,60.3
0.491546,419.3,200.5,1125.0,330.9,2298.1,294.4,420.4,1037.9,2308.4,126.5,60.4
0.493546,421.6,209.6,1103.3,367.6,2342.7,302.9,421.5,1032.9,2305.6,126.5,60.5
0.495546,424.5,221.1,1081.2,388.9,2380.8,300.2,422.6,1028.1,2302.8,126.6,60.5
0.497546,429.3,230.5,1065.3,408.0,2377.9,298.4,423.6,1023.3,2300.1,126.6,60.6
0.499546,433.3,238.0,1053.4,419.0,2332.9,283.4,424.7,1018.6,2297.5,126.6,60.6
0.501546,435.1,241.9,1045.3,412.6,2283.5,235.6,425.8,1014.1,2295,126.6,60.5
0.503546,438.6,241.5,1042.7,406.7,2262.2,185.2,426.8,1009.7,2292.5,126.7,60.5
0.505546,445.6,240.1,1042.9,416.1,2266.4,155.9,427.9,1005.5,2290.1,126.7,60.4
0.507546,452.8,240.5,1043.0,432.0,2276.9,143.5,428.9,1001.4,2287.8,126.7,60.3
0.509546,458.2,236.3,1044.5,448.7,2282.8,141.6,429.8,997.5,2285.6,126.7,60.2
0.511546,461.1,221.0,1045.1,476.9,2278.1,153.4,430.8,993.7,2283.6,126.7,60.2
0.513546,464.1,208.3,1032.3,539.3,2261.5,175.2,431.7,990.1,2281.6,126.7,60.2
0.515546,469.1,211.8,996.4,611.5,2238.7,180.0,432.6,986.7,2279.7,126.6,60.3
0.517546,472.8,221.8,957.9,633.2,2223.3,161.3,433.4,983.5,2277.9,126.6,60.6
0.519546,471.6,224.1,937.7,609.0,2217.4,148.0,434.2,980.6,2276.3,126.6,60.8
0.521546,467.4,220.6,932.9,590.5,2221.1,160.2,434.9,977.8,2274.7,126.5,61
0.523546,462.9,220.9,928.0,600.4,2233.8,195.1,435.6,975.2,2273.3,126.5,61.2
0.525546,456.3,222.1,913.9,630.2,2251.5,234.6,436.2,972.9,2272,126.4,61.5
0.527546,445.5,218.7,876.8,688.8,2268.9,261.6,436.8,970.8,2270.9,126.3,61.7
0.529546,436.4,216.1,806.7,789.3,2276.0,264.4,437.3,968.9,2269.8,126.2,62
0.531546,432.0,216.2,729.0,928.1,2270.5,260.3,437.7,967.3,2268.9,126.2,62.2
0.533546,421.7,207.3,702.7,1094.0,2258.2,270.2,438.1,965.9,2268.2,126.1,62.3
0.535546,404.1,184.3,742.7,1298.0,2247.3,302.3,438.4,964.8,2267.5,126,62.3
0.537546,387.7,154.8,810.6,1619.8,2243.1,365.1,438.7,963.9,2267.1,125.9,62.2
0.539546,377.2,137.2,868.3,2082.4,2248.8,438.4,438.8,963.3,2266.7,125.8,61.8
0.541546,368.3,133.4,919.0,2111.5,2257.6,450.1,439,962.9,2266.5,125.7,61.2
0.543546,356.7,136.7,947.8,1587.8,2258.3,359.6,439,962.8,2266.4,125.6,60.4
