time,f1,b1,f2,b2,f3,b3,f1p,f2p,f3p,f0,intensity
0.025995,322.5,89.5,1455.3,219.2,2198.5,278.2,329.6,1204.2,2268,171.9,80
0.027995,324.5,72.2,1402.8,278.3,2209.6,248.9,329.2,1202.5,2266.3,172.3,80.7
0.029995,325.6,60.4,1312.4,312.2,2210.7,229.8,328.6,1199.8,2263.4,172.7,81.2
0.031995,325.7,51.2,1229.9,265.3,2211.6,222.3,327.7,1196.1,2259.3,173.1,81.6
0.033995,325.8,45.3,1193.1,207.6,2222.8,245.3,326.6,1191.3,2254.2,173.5,81.9
0.035995,326.2,41.8,1180.6,176.0,2253.8,303.8,325.2,1185.5,2248,173.9,82.2
0.037995,326.8,39.9,1176.8,167.0,2302.0,381.4,323.7,1178.8,2240.8,174.4,82.3
0.039995,326.8,38.7,1169.2,168.1,2353.9,470.7,321.9,1171.1,2232.6,174.9,82.5
0.041995,326.2,37.7,1148.3,167.9,2382.0,563.3,319.9,1162.5,2223.5,175.4,82.5
0.043995,324.9,36.1,1117.8,157.5,2366.8,653.6,317.7,1153.1,2213.6,175.9,82.6
0.045995,323.2,35.1,1097.8,141.7,2320.0,713.7,315.4,1142.8,2202.9,176.4,82.6
0.047995,321.2,36.0,1090.4,129.8,2270.9,736.6,312.9,1131.9,2191.6,176.9,82.5
0.049995,318.4,39.1,1089.5,124.7,2233.3,728.0,310.3,1120.3,2179.6,177.4,82.5
0.051995,314.8,43.1,1090.2,126.7,2202.2,688.7,307.6,1108,2167.1,177.9,82.4
0.053995,310.2,47.4,1090.2,136.2,2167.1,624.6,304.8,1095.3,2154.2,178.4,82.3
0.055995,305.0,52.3,1088.5,155.1,2132.1,561.6,301.9,1082.1,2140.9,178.9,82.1
0.057995,298.9,58.0,1081.0,188.9,2099.4,527.2,299,1068.5,2127.4,179.3,81.9
0.059995,292.7,63.4,1061.9,239.3,2067.1,536.2,296,1054.6,2113.7,179.8,81.7
0.061995,286.4,67.3,1019.8,308.2,2018.1,565.3,293,1040.4,2099.9,180.2,81.5
0.063995,280.8,68.3,946.9,360.0,1958.5,516.5,290.1,1026.2,2086.1,180.6,81.3
0.065995,276.9,68.0,878.3,358.6,1956.3,390.5,287.2,1011.9,2072.5,181,81.1
0.067995,275.2,66.1,850.6,326.4,1977.0,314.8,284.3,997.6,2059,181.4,81
0.069995,274.3,60.8,845.2,275.4,1984.1,279.8,281.6,983.4,2045.7,181.7,80.9
0.071995,273.6,54.2,846.0,225.4,1978.4,264.7,278.9,969.4,2032.8,182.1,80.9
0.073995,272.9,48.7,849.1,187.9,1965.7,264.8,276.3,955.8,2020.3,182.4,80.9
0.075995,272.0,46.0,852.7,167.6,1949.4,282.7,273.8,942.4,2008.3,182.6,80.9
0.077995,270.7,46.0,855.7,158.6,1931.3,317.0,271.5,929.6,1996.8,182.9,80.9
0.079995,268.7,47.6,858.8,153.4,1916.2,359.8,269.4,917.2,1985.9,183.1,80.9
0.081995,266.1,49.2,863.9,144.5,1908.5,393.7,267.4,905.5,1975.6,183.3,80.9
0.083995,263.2,50.1,872.3,130.8,1903.8,426.4,265.6,894.4,1966,183.4,80.9
0.085995,260.2,50.6,882.6,116.1,1896.3,481.0,264,884.1,1957,183.6,80.9
0.087995,257.6,51.7,892.9,104.2,1882.9,594.0,262.5,874.6,1948.8,183.7,80.9
0.089995,256.2,54.1,901.7,97.9,1874.7,785.8,261.3,866,1941.3,183.8,81
0.091995,255.9,57.1,908.6,93.8,1889.4,1050.6,260.3,858.2,1934.6,183.8,81.1
0.093995,256.1,58.5,911.9,90.2,1926.8,1281.7,259.5,851.5,1928.6,183.8,81.1
0.095995,256.8,58.1,912.5,87.8,1974.2,1394.2,258.9,845.7,1923.3,183.9,81.1
0.097995,257.9,57.1,912.3,87.4,2024.5,1400.1,258.5,841,1918.8,183.8,81.1
0.099995,259.5,56.1,911.7,88.9,2071.9,1346.9,258.3,837.3,1915.1,183.8,81.1
0.101995,261.1,55.2,910.2,93.1,2100.4,1278.2,258.3,834.7,1912,183.7,81.1
0.103995,262.8,54.9,907.3,102.5,2104.2,1229.6,258.6,833.3,1909.5,183.7,81.1
0.105995,264.3,55.7,902.9,119.8,2084.7,1202.7,259,832.9,1907.7,183.6,81
0.107995,265.8,57.8,895.4,150.4,2045.5,1165.9,259.6,833.7,1906.5,183.4,81
0.109995,267.2,61.6,881.1,201.1,1995.4,1096.5,260.3,835.5,1905.9,183.3,80.9
0.111995,268.5,68.6,853.3,282.6,1950.7,1003.7,261.2,838.4,1905.8,183.1,80.9
0.113995,270.4,79.0,821.0,383.2,1926.9,952.5,262.3,842.4,1906.1,183,80.8
0.115995,272.6,88.6,806.5,477.8,1912.0,975.8,263.5,847.4,1906.8,182.8,80.8
0.117995,273.9,92.3,820.3,532.3,1897.3,1043.7,264.9,853.4,1907.9,182.5,80.7
0.119995,274.0,92.0,838.1,549.8,1880.8,1072.7,266.3,860.3,1909.3,182.3,80.7
0.121995,273.7,90.6,847.1,558.6,1860.7,1036.1,267.9,868.1,1911,182,80.6
0.123995,273.3,88.0,854.8,558.4,1842.2,956.8,269.5,876.7,1912.9,181.7,80.6
0.125995,273.0,83.9,873.8,540.1,1831.4,878.3,271.2,886.1,1914.9,181.4,80.5
0.127995,273.2,79.8,905.1,509.9,1834.8,840.0,272.9,896.1,1917,181.1,80.4
0.129995,274.1,75.5,940.4,467.1,1850.9,816.2,274.7,906.7,1919.2,180.8,80.3
0.131995,275.3,70.0,970.3,409.5,1869.7,780.8,276.5,917.9,1921.5,180.4,80.2
0.133995,276.8,62.7,995.0,339.0,1884.7,737.5,278.3,929.5,1923.7,180,80
0.135995,278.4,55.6,1012.8,274.3,1893.4,693.3,280.1,941.4,1925.8,179.6,79.9
0.137995,279.9,49.8,1026.5,221.2,1902.5,641.8,281.9,953.6,1927.9,179.2,79.8
0.139995,281.2,45.7,1036.9,181.7,1917.8,579.1,283.7,965.9,1929.8,178.8,79.7
0.141995,282.6,43.2,1044.5,153.8,1936.4,501.0,285.4,978.3,1931.6,178.4,79.6
0.143995,283.9,41.6,1048.4,138.0,1948.8,421.7,287.1,990.7,1933.2,177.9,79.6
0.145995,285.3,40.1,1048.8,130.0,1953.8,345.9,288.7,1002.9,1934.6,177.5,79.5
0.147995,286.7,38.7,1046.0,128.9,1953.5,282.6,290.2,1014.9,1935.9,177,79.4
0.149995,287.9,38.3,1041.6,139.6,1952.2,239.4,291.6,1026.6,1937,176.5,79.3
0.151995,288.8,40.3,1037.4,170.0,1952.7,223.2,293,1037.9,1937.8,176,79.2
0.153995,289.6,44.2,1032.0,227.7,1953.0,222.7,294.2,1048.7,1938.5,175.5,79
0.155995,290.2,47.8,1022.6,313.9,1949.0,225.2,295.4,1058.9,1939,175,78.9
0.157995,290.7,48.3,1011.3,396.4,1939.4,224.8,296.4,1068.5,1939.3,174.5,78.7
0.159995,290.9,46.1,1006.9,448.4,1925.1,226.9,297.4,1077.3,1939.4,173.9,78.6
0.161995,291.2,42.9,1018.5,471.0,1908.9,243.4,298.2,1085.4,1939.4,173.4,78.4
0.163995,292.0,41.1,1045.8,501.0,1894.6,290.1,298.9,1092.7,1939.3,172.9,78.3
0.165995,293.6,40.6,1073.5,548.8,1888.0,360.3,299.6,1099.1,1939,172.3,78.2
0.167995,295.4,39.5,1084.6,586.8,1893.7,416.5,300.1,1104.5,1938.7,171.8,78.1
0.169995,297.1,37.5,1069.0,593.7,1913.2,417.3,300.5,1109,1938.3,171.2,78.1
0.171995,298.8,35.7,1040.2,591.2,1934.1,391.8,300.8,1112.6,1937.9,170.7,78.1
0.173995,300.5,34.9,1018.1,603.4,1944.4,390.7,301,1115.2,1937.5,170.2,78.1
0.175995,302.3,34.8,1004.8,630.0,1946.2,416.0,301.1,1116.8,1937.1,169.6,78.2
0.177995,304.1,34.0,997.4,646.6,1945.8,434.6,301.1,1117.4,1936.8,169.1,78.3
0.179995,305.4,31.3,998.9,609.2,1949.8,415.9,301,1117,1936.5,168.5,78.3
0.181995,306.4,27.3,1014.8,516.6,1955.2,377.0,300.9,1115.8,1936.4,168,78.4
0.183995,307.3,23.2,1038.9,408.4,1958.0,336.6,300.7,1113.7,1936.3,167.4,78.5
0.185995,307.8,19.7,1063.6,312.1,1958.3,297.7,300.4,1110.7,1936.4,166.9,78.5
0.187995,307.7,17.3,1082.0,244.5,1957.5,264.5,300,1106.9,1936.6,166.3,78.5
0.189995,307.3,15.6,1093.3,196.4,1955.5,232.2,299.7,1102.5,1937.1,165.8,78.5
0.191995,306.2,14.6,1098.4,162.0,1952.6,198.2,299.2,1097.4,1937.6,165.2,78.4
0.193995,304.8,14.1,1100.9,135.4,1949.3,163.2,298.8,1091.7,1938.4,164.7,78.3
0.195995,303.3,14.1,1102.7,117.8,1947.1,137.0,298.3,1085.6,1939.4,164.2,78.3
0.197995,301.5,14.4,1104.5,106.3,1946.6,120.8,297.8,1079,1940.5,163.6,78.2
0.199995,299.9,14.7,1106.2,98.3,1947.3,114.0,297.3,1072.3,1941.9,163.1,78.1
0.201995,298.7,14.9,1107.7,91.3,1948.7,114.3,296.7,1065.3,1943.4,162.5,78
0.203995,297.9,15.2,1107.6,84.4,1949.9,119.3,296.2,1058.3,1945,162,77.9
0.205995,297.4,15.4,1105.9,76.0,1949.6,128.6,295.7,1051.3,1946.8,161.5,77.8
0.207995,297.0,15.5,1103.2,66.7,1946.0,143.6,295.1,1044.5,1948.8,161,77.6
0.209995,296.3,15.5,1099.7,58.0,1939.8,166.7,294.6,1038,1950.8,160.4,77.5
0.211995,295.2,15.5,1096.5,51.4,1936.4,196.3,294.1,1031.9,1952.9,159.9,77.3
0.213995,294.0,15.7,1094.0,46.0,1939.8,233.4,293.7,1026.3,1955.1,159.4,77.1
0.215995,292.3,16.2,1092.2,41.7,1953.2,270.4,293.2,1021.3,1957.3,158.9,76.8
0.217995,290.1,17.0,1090.3,38.5,1973.1,278.3,292.8,1017.1,1959.5,158.4,76.5
0.219995,287.8,18.3,1088.3,37.3,1985.0,247.0,292.5,1013.6,1961.7,157.9,76.3
0.221995,285.4,20.6,1086.3,38.3,1989.0,211.1,292.1,1011.1,1963.8,157.4,76
0.223995,283.1,23.8,1084.3,41.5,1989.8,188.5,291.8,1009.6,1965.7,156.9,75.7
0.225995,281.7,27.2,1082.6,45.8,1989.0,177.4,291.5,1009.2,1967.6,156.5,75.4
0.227995,281.5,29.6,1081.3,49.7,1985.8,167.7,291.3,1010,1969.2,156,75.1
0.229995,282.0,29.8,1080.8,52.4,1981.0,159.0,291.1,1011.9,1970.7,155.5,74.9
0.231995,283.3,28.2,1081.4,55.2,1976.5,158.1,290.9,1015.2,1971.9,155.1,74.8
0.233995,285.4,26.2,1082.4,59.8,1973.5,168.4,290.7,1019.8,1972.8,154.7,74.7
0.235995,287.7,24.2,1083.0,67.2,1971.0,185.2,290.6,1025.8,1973.5,154.2,74.7
0.237995,289.9,22.1,1082.9,77.1,1969.0,196.8,290.6,1033.2,1973.8,153.8,74.7
0.239995,292.1,19.7,1081.7,89.8,1967.2,191.3,290.5,1041.9,1973.8,153.3,74.8
0.241995,293.9,17.4,1079.7,102.9,1964.4,169.4,290.5,1052,1973.4,152.9,74.9
0.243995,295.2,15.1,1077.2,114.5,1959.7,143.2,290.5,1063.5,1972.6,152.5,75
0.245995,296.1,13.1,1074.5,123.1,1953.4,123.8,290.5,1076.4,1971.5,152,75.2
0.247995,296.7,11.6,1070.2,131.1,1946.9,115.6,290.5,1090.6,1970,151.6,75.3
0.249995,296.7,11.0,1064.2,141.0,1943.1,118.0,290.6,1106,1968,151.1,75.3
0.251995,296.6,10.9,1057.9,155.5,1943.8,125.5,290.7,1122.6,1965.7,150.7,75.4
0.253995,296.3,11.3,1054.2,178.5,1948.2,133.0,290.7,1140.3,1963,150.3,75.4
0.255995,295.7,12.1,1057.5,215.4,1952.4,136.8,290.8,1159,1959.9,149.8,75.4
0.257995,295.0,12.9,1070.1,251.8,1952.0,137.1,290.9,1178.7,1956.5,149.3,75.4
0.259995,294.1,13.2,1087.1,271.3,1947.3,137.0,291,1199.2,1952.7,148.9,75.3
0.261995,292.8,13.4,1102.4,277.6,1939.9,140.7,291.2,1220.3,1948.6,148.4,75.2
0.263995,291.6,13.5,1118.0,285.3,1933.3,155.7,291.3,1242.1,1944.3,147.9,75.1
0.265995,290.7,14.1,1142.6,300.7,1931.3,194.1,291.4,1264.3,1939.7,147.4,74.9
0.267995,290.0,15.4,1174.0,325.2,1937.5,266.6,291.5,1286.8,1934.8,146.9,74.7
0.269995,289.5,17.3,1204.4,365.9,1950.1,375.1,291.6,1309.4,1929.8,146.4,74.6
0.271995,289.5,19.5,1228.3,420.7,1955.1,475.5,291.7,1332.1,1924.7,145.9,74.4
0.273995,289.5,21.5,1252.5,481.2,1938.6,535.0,291.8,1354.7,1919.5,145.4,74.4
0.275995,289.4,22.8,1287.0,527.9,1902.4,571.9,291.9,1376.9,1914.3,144.8,74.3
0.277995,289.5,23.9,1347.9,532.6,1864.0,656.6,292,1398.8,1909,144.3,74.2
0.279995,289.8,24.9,1406.5,460.7,1864.2,778.2,292.1,1420,1903.9,143.8,74.2
0.281995,290.0,24.9,1429.0,385.9,1897.4,762.5,292.2,1440.6,1898.8,143.3,74.1
0.283995,290.0,24.0,1438.1,347.2,1908.6,620.6,292.3,1460.2,1893.8,142.7,74
0.285995,289.7,23.0,1445.2,325.2,1900.2,474.3,292.3,1478.9,1889.1,142.2,73.8
0.287995,288.8,23.0,1448.9,323.0,1887.2,382.7,292.4,1496.4,1884.6,141.7,73.5
0.289995,287.6,24.3,1451.9,352.4,1874.5,339.1,292.5,1512.6,1880.4,141.2,73.2
0.291995,287.7,27.9,1468.9,427.5,1860.3,344.0,292.5,1527.5,1876.5,140.7,72.8
0.293995,289.5,34.1,1529.9,511.6,1834.8,409.5,292.6,1540.9,1873,140.2,72.4
0.295995,291.4,41.6,1632.3,451.5,1802.0,601.1,292.6,1552.7,1869.9,139.8,72
0.297995,292.7,47.4,1636.5,348.5,1865.7,737.5,292.6,1562.8,1867.2,139.3,71.6
0.299995,295.5,49.9,1634.3,354.4,1915.8,701.6,292.6,1571.2,1864.9,138.9,71.3
0.301995,299.3,49.4,1663.5,414.9,1921.5,629.5,292.7,1577.8,1863.1,138.5,71.3
0.303995,300.1,45.8,1764.8,454.2,1865.1,633.9,292.7,1582.6,1861.9,138.1,71.4
0.305995,297.3,40.2,1822.4,306.6,1866.2,846.2,292.7,1585.4,1861.1,137.8,71.6
0.307995,293.8,35.2,1831.5,232.1,1935.4,1025.7,292.7,1586.4,1860.8,137.4,72
