time,f1,b1,f2,b2,f3,b3,f1p,f2p,f3p,f0,intensity
0.025689,423.8,146.0,1408.2,116.7,2273.2,83.0,418.6,1422.1,2268.5,147,70
0.027689,427.8,198.3,1414.6,110.7,2285.0,100.1,428.3,1420.4,2270.3,146.9,70.4
0.029689,428.8,253.7,1414.5,107.7,2285.2,116.4,443.9,1417.7,2273.2,146.9,70.7
0.031689,433.5,315.6,1411.2,111.3,2277.4,128.2,464.7,1413.8,2277,146.8,70.8
0.033689,453.1,389.4,1407.1,125.4,2272.6,134.5,489.9,1408.6,2281.4,146.8,70.9
0.035689,500.8,453.7,1403.4,145.1,2277.8,135.9,518.5,1402.1,2286,146.7,70.9
0.037689,565.4,452.1,1399.8,155.8,2288.0,125.1,549.2,1394.2,2290.5,146.7,71
0.039689,619.5,408.9,1394.2,162.6,2292.7,105.6,580.8,1384.9,2294.6,146.6,71
0.041689,653.0,369.8,1386.4,177.6,2290.2,90.8,612.1,1374.1,2298,146.5,71.2
0.043689,675.2,335.5,1375.0,203.9,2284.9,84.7,642.1,1362,2300.2,146.5,71.3
0.045689,693.5,310.7,1360.2,237.9,2282.8,85.9,669.7,1348.6,2301,146.4,71.4
0.047689,709.6,295.6,1343.1,272.5,2287.4,91.7,694.2,1334.1,2300.3,146.3,71.5
0.049689,722.4,276.1,1322.4,291.4,2298.4,100.5,715,1318.7,2297.9,146.2,71.6
0.051689,728.3,249.0,1299.0,273.1,2310.2,104.9,731.7,1302.6,2293.9,146.2,71.7
0.053689,729.2,223.4,1275.0,229.4,2312.7,97.9,744.4,1286.1,2288.2,146.1,71.9
0.055689,729.2,205.8,1255.8,191.4,2301.8,84.4,753,1269.6,2281.1,146,72
0.057689,731.0,194.3,1239.5,166.0,2281.1,70.6,758,1253.4,2272.8,145.8,72.1
0.059689,734.0,190.2,1225.0,150.3,2258.7,58.8,759.8,1237.8,2263.5,145.7,72.2
0.061689,737.0,195.1,1212.5,140.2,2242.7,49.5,759.1,1223.2,2253.7,145.6,72.3
0.063689,741.5,210.3,1204.1,138.2,2235.2,44.1,756.5,1209.8,2243.7,145.4,72.4
0.065689,750.2,242.8,1198.0,146.1,2230.8,42.5,752.7,1197.8,2233.8,145.3,72.4
0.067689,759.9,295.2,1191.7,159.2,2225.9,43.4,748.5,1187.5,2224.4,145.1,72.6
0.069689,759.3,345.2,1184.5,164.1,2219.2,44.2,744.4,1178.8,2215.9,144.9,72.8
0.071689,746.6,349.6,1180.3,159.6,2211.3,43.1,741,1171.8,2208.6,144.7,73.1
0.073689,736.6,316.7,1178.3,156.0,2202.8,40.9,738.5,1166.5,2202.6,144.5,73.4
0.075689,735.7,287.1,1175.7,155.7,2196.4,38.6,737.2,1162.6,2198.2,144.3,73.8
0.077689,739.4,277.0,1171.2,158.8,2193.0,37.3,737.1,1160.1,2195.3,144,74.1
0.079689,746.3,287.4,1165.3,168.8,2192.4,38.1,738.1,1158.5,2194.1,143.8,74.4
0.081689,756.5,312.0,1158.2,183.6,2193.7,40.0,740.1,1157.6,2194.3,143.5,74.5
0.083689,764.5,334.5,1152.1,190.6,2195.9,40.4,742.6,1157.2,2195.9,143.3,74.6
0.085689,766.3,347.4,1149.3,187.8,2197.7,39.4,745.4,1156.9,2198.6,143,74.6
0.087689,764.0,358.3,1149.0,182.1,2199.2,38.9,747.9,1156.4,2202.2,142.7,74.6
0.089689,759.2,369.3,1148.3,172.5,2201.1,39.1,749.9,1155.5,2206.4,142.4,74.7
0.091689,749.2,373.5,1146.4,153.7,2204.2,38.9,750.8,1154.1,2210.8,142,74.8
0.093689,735.4,367.8,1145.0,131.4,2209.7,39.5,750.5,1151.9,2215.1,141.7,74.9
0.095689,723.1,357.2,1144.9,110.7,2218.5,41.4,748.6,1149,2219.1,141.4,75
0.097689,716.9,351.5,1144.5,94.2,2228.2,42.1,745.2,1145.3,2222.4,141,75.2
0.099689,715.8,361.5,1142.8,82.2,2235.4,41.4,740.2,1141,2224.9,140.7,75.3
0.101689,717.3,389.9,1139.5,75.2,2238.9,41.9,733.7,1136.1,2226.3,140.3,75.3
0.103689,719.3,426.5,1134.2,69.5,2237.9,43.1,726,1130.9,2226.6,140,75.3
0.105689,718.3,449.2,1127.9,61.3,2231.2,41.0,717.4,1125.6,2225.7,139.6,75.2
0.107689,712.0,449.1,1122.2,51.2,2221.4,34.9,708.2,1120.3,2223.5,139.2,75.1
0.109689,702.5,429.7,1118.3,44.2,2213.8,29.1,698.7,1115.3,2220.1,138.9,74.8
0.111689,693.8,398.8,1115.9,42.4,2209.3,26.7,689.4,1110.7,2215.7,138.5,74.5
0.113689,688.4,368.1,1114.6,46.6,2206.3,28.0,680.5,1106.8,2210.3,138.1,74
0.115689,684.7,341.9,1112.6,58.0,2202.0,32.5,672.4,1103.6,2204.2,137.8,73.5
0.117689,681.3,320.5,1108.0,76.1,2195.5,37.6,665.2,1101.1,2197.6,137.4,72.9
0.119689,676.4,305.2,1098.7,95.5,2188.3,40.1,659.1,1099.5,2190.6,137.1,72.3
0.121689,669.0,298.9,1088.1,101.9,2182.4,40.5,654.2,1098.5,2183.6,136.8,71.7
0.123689,661.7,296.9,1083.1,97.9,2176.3,44.3,650.3,1098.3,2176.7,136.4,71.2
0.125689,655.1,291.4,1084.9,95.6,2167.0,56.6,647.5,1098.5,2170.2,136.1,70.7
0.127689,645.6,275.6,1089.8,100.0,2155.2,75.7,645.5,1099.1,2164.4,135.8,70.3
0.129689,636.7,258.5,1094.5,114.5,2147.2,91.8,644.3,1099.8,2159.3,135.6,69.9
0.131689,636.5,249.1,1099.6,138.5,2148.0,96.3,643.5,1100.6,2155.2,135.3,69.5
0.133689,640.6,241.2,1107.0,153.5,2154.5,90.7,643.1,1101.3,2152.1,135.1,69.1
0.135689,635.5,233.1,1112.7,136.6,2162.0,82.6,643,1101.8,2150.3,134.8,68.7
0.137689,616.9,231.5,1113.8,106.3,2170.1,78.9,642.9,1101.9,2149.6,134.6,68.3
