time,f1,b1,f2,b2,f3,b3,f1p,f2p,f3p,f0,intensity
0.025265,369.7,202.9,1243.9,152.4,2382.7,46.0,412.4,1252.1,2400.9,150.2,72.1
0.027265,383.4,168.9,1245.9,136.1,2383.3,42.1,412.9,1252.7,2398.8,150.1,72.6
0.029265,396.4,146.2,1249.5,128.7,2386.8,41.1,413.7,1253.5,2395.4,150,73
0.031265,409.3,132.1,1256.1,126.3,2393.3,44.6,414.8,1254.8,2390.6,149.8,73.5
0.033265,420.4,120.7,1263.8,122.4,2401.5,54.4,416.3,1256.3,2384.7,149.7,73.9
0.035265,427.3,110.9,1268.8,114.8,2411.1,71.1,418,1258,2377.6,149.5,74.2
0.037265,431.4,102.2,1270.6,104.4,2424.3,99.4,420.1,1260,2369.5,149.3,74.4
0.039265,433.7,95.5,1270.5,93.3,2442.9,142.2,422.4,1262.2,2360.5,149.1,74.6
0.041265,435.5,91.4,1271.0,84.5,2412.9,533.6,425,1264.5,2350.7,148.8,74.7
0.043265,437.8,91.1,1272.9,80.9,2367.4,455.0,427.9,1266.9,2340.4,148.6,74.6
0.045265,440.8,95.0,1276.0,83.5,2329.5,418.7,431.1,1269.3,2329.7,148.3,74.5
0.047265,443.6,101.7,1278.4,90.5,2301.6,396.6,434.5,1271.6,2318.7,148,74.3
0.049265,446.4,109.9,1279.9,98.2,2282.9,384.1,438.1,1273.9,2307.6,147.7,74
0.051265,449.4,121.4,1281.1,105.6,2266.8,382.3,441.9,1275.9,2296.6,147.4,73.7
0.053265,452.3,138.4,1282.1,113.9,2245.5,389.1,446,1277.8,2285.9,147.1,73.4
0.055265,454.8,154.0,1281.7,119.2,2225.2,400.3,450.1,1279.3,2275.6,146.8,73.1
0.057265,459.3,163.6,1280.4,120.0,2216.6,413.3,454.5,1280.5,2265.8,146.4,72.8
0.059265,465.8,169.5,1278.6,119.8,2220.3,420.7,458.9,1281.3,2256.7,146.1,72.6
0.061265,472.2,172.5,1276.3,119.3,2228.8,408.2,463.5,1281.6,2248.5,145.7,72.4
0.063265,476.3,169.0,1272.9,117.3,2228.1,379.4,468.1,1281.4,2241.2,145.3,72.2
0.065265,479.1,162.1,1268.4,116.3,2216.2,347.5,472.8,1280.6,2234.9,144.9,72
0.067265,481.4,156.8,1262.9,117.3,2202.1,312.4,477.5,1279.3,2229.7,144.6,71.9
0.069265,483.2,152.5,1257.9,116.6,2194.2,282.1,482.2,1277.3,2225.6,144.2,71.8
0.071265,485.8,144.8,1253.6,111.5,2188.9,257.2,486.8,1274.6,2222.6,143.8,71.7
0.073265,489.2,133.8,1249.5,105.5,2184.4,233.8,491.4,1271.3,2220.9,143.4,71.5
0.075265,492.4,123.4,1246.1,101.3,2186.5,206.0,495.9,1267.3,2220.3,143,71.4
0.077265,495.3,116.9,1244.0,100.4,2198.9,179.6,500.3,1262.6,2220.8,142.7,71.2
0.079265,499.4,114.5,1242.5,105.4,2219.4,159.3,504.5,1257.2,2222.4,142.3,71
0.081265,503.5,114.3,1240.6,116.0,2241.6,145.1,508.5,1251.2,2225,141.9,70.8
0.083265,506.5,112.1,1238.4,126.2,2260.7,135.2,512.2,1244.6,2228.5,141.6,70.6
0.085265,509.2,105.2,1236.6,126.9,2271.7,133.9,515.8,1237.3,2232.8,141.2,70.5
0.087265,512.5,96.3,1235.4,121.5,2277.6,140.6,519,1229.5,2237.7,140.9,70.3
0.089265,515.3,89.3,1235.0,117.2,2282.8,144.8,522,1221.1,2243.3,140.6,70.1
0.091265,517.9,83.4,1234.1,115.7,2288.9,141.0,524.6,1212.3,2249.3,140.2,70
0.093265,521.6,78.2,1231.0,118.2,2295.4,137.9,526.9,1203.1,2255.5,139.9,69.8
0.095265,526.0,73.8,1223.9,126.9,2304.1,150.0,528.7,1193.5,2262,139.6,69.7
0.097265,529.0,71.2,1214.6,141.3,2317.0,181.7,530.2,1183.6,2268.4,139.3,69.5
0.099265,530.8,70.4,1203.5,162.8,2333.4,226.1,531.3,1173.5,2274.8,139,69.4
0.101265,532.1,71.5,1186.5,190.3,2341.4,263.7,532,1163.3,2280.9,138.7,69.3
0.103265,532.1,72.7,1158.3,211.6,2327.6,273.7,532.2,1153,2286.6,138.5,69.1
0.105265,530.1,72.2,1123.4,215.2,2300.0,231.9,531.9,1142.7,2291.9,138.2,69
0.107265,527.1,70.9,1096.5,209.5,2283.7,166.5,531.2,1132.5,2296.6,137.9,68.9
0.109265,523.7,70.4,1081.3,206.4,2276.4,118.9,530,1122.4,2300.7,137.7,68.7
0.111265,521.3,72.9,1078.8,211.1,2271.6,96.6,528.4,1112.6,2304,137.4,68.4
0.113265,521.7,82.9,1088.2,233.0,2269.0,91.0,526.3,1103.1,2306.5,137.2,68.1
0.115265,525.1,103.4,1106.6,273.7,2271.4,93.4,523.7,1093.9,2308.3,137,67.7
0.117265,527.8,130.4,1123.6,308.4,2276.9,94.0,520.7,1085.2,2309.2,136.7,67.4
0.119265,524.9,149.0,1127.2,307.8,2281.1,88.6,517.3,1077,2309.2,136.5,67.2
0.121265,517.2,151.0,1119.5,282.9,2283.1,78.0,513.4,1069.4,2308.5,136.3,67
0.123265,509.1,141.3,1105.9,263.1,2282.8,67.5,509.1,1062.4,2307,136.1,66.9
0.125265,503.2,131.9,1089.7,261.4,2280.2,64.8,504.4,1056,2304.7,135.9,66.9
0.127265,499.4,128.8,1075.2,277.8,2277.1,75.4,499.3,1050.3,2301.8,135.7,66.8
0.129265,496.1,131.5,1065.2,319.9,2277.3,95.2,493.9,1045.4,2298.2,135.5,66.6
0.131265,494.9,140.4,1072.6,400.4,2280.2,97.6,488.2,1041.2,2294.2,135.3,66.4
0.133265,492.6,150.2,1085.5,523.5,2284.0,89.0,482.2,1037.9,2289.7,135.1,66
0.135265,487.4,163.5,1068.7,747.7,2290.9,94.1,475.9,1035.3,2284.9,134.8,65.7
0.137265,484.9,179.9,996.3,1093.4,2296.5,127.5,469.4,1033.5,2279.9,134.6,65.3
0.139265,479.5,188.6,903.1,1303.5,2294.6,201.2,462.7,1032.5,2274.7,134.4,64.9
0.141265,466.4,189.1,899.2,1278.3,2273.1,298.2,455.8,1032.3,2269.5,134.2,64.5
0.143265,453.1,190.3,926.1,1263.0,2236.2,331.5,448.8,1032.9,2264.5,134,64.1
0.145265,447.3,198.4,940.9,1409.2,2224.5,293.3,441.7,1034.3,2259.5,133.7,63.8
0.147265,445.8,207.8,933.9,1667.2,2222.5,250.5,434.6,1036.4,2254.9,133.5,63.4
0.149265,435.6,210.0,913.2,1582.7,2235.6,240.1,427.4,1039.2,2250.6,133.3,63.1
0.151265,409.4,193.5,984.1,1186.4,2263.2,251.7,420.2,1042.7,2246.8,133,62.7
0.153265,386.3,160.7,1084.5,846.6,2278.5,245.6,413.1,1046.9,2243.4,132.8,62.2
0.155265,376.4,140.5,1135.1,626.4,2279.8,217.6,406,1051.7,2240.5,132.5,61.8
0.157265,372.7,137.4,1145.0,496.8,2276.7,195.7,399,1057,2238.2,132.2,61.4
0.159265,369.7,142.6,1148.0,407.6,2268.4,184.2,392.2,1062.9,2236.5,132,61.1
0.161265,369.4,148.7,1154.0,351.0,2253.4,172.8,385.5,1069.2,2235.3,131.7,60.8
0.163265,372.7,151.4,1151.7,306.8,2236.2,153.3,379,1076,2234.8,131.4,60.5
0.165265,376.8,153.5,1136.5,258.7,2223.8,139.2,372.7,1083.1,2234.8,131.1,60.4
0.167265,380.8,155.0,1119.5,207.8,2216.2,145.6,366.6,1090.6,2235.3,130.8,60.5
0.169265,381.9,154.3,1113.1,177.4,2213.4,180.8,360.8,1098.4,2236.2,130.6,60.5
0.171265,375.7,155.8,1116.0,172.8,2217.7,245.7,355.3,1106.3,2237.6,130.3,60.6
0.173265,362.6,161.9,1125.4,187.4,2233.1,347.5,350,1114.5,2239.4,130,60.6
0.175265,347.3,170.1,1138.1,215.6,2258.3,438.8,345,1122.8,2241.4,129.6,60.5
0.177265,334.1,179.4,1146.6,257.5,2282.8,387.9,340.2,1131.1,2243.6,129.3,60.3
0.179265,326.8,195.4,1145.7,316.6,2285.5,255.2,335.8,1139.5,2246,129,60.1
0.181265,326.5,216.1,1145.3,373.1,2280.4,171.5,331.7,1147.9,2248.3,128.7,59.9
0.183265,331.5,223.8,1160.2,382.1,2277.4,134.6,327.9,1156.3,2250.6,128.4,59.8
0.185265,333.3,224.1,1181.7,363.3,2276.8,121.9,324.4,1164.5,2252.8,128.1,59.9
0.187265,326.6,235.6,1199.0,342.5,2277.9,122.6,321.2,1172.7,2254.8,127.8,59.9
0.189265,313.1,274.4,1209.1,321.8,2278.0,129.1,318.3,1180.7,2256.5,127.4,60
0.191265,298.2,339.5,1205.3,302.7,2272.0,132.8,315.7,1188.5,2257.8,127.1,59.9
0.193265,291.4,386.3,1190.9,282.5,2260.3,128.0,313.3,1196.2,2258.8,126.8,59.8
0.195265,297.4,380.4,1176.6,268.9,2250.4,117.8,311.3,1203.6,2259.3,126.4,59.6
0.197265,304.5,359.6,1163.9,277.4,2243.7,110.2,309.5,1210.7,2259.4,126.1,59.5
0.199265,310.0,343.7,1155.2,313.2,2236.1,113.0,307.9,1217.6,2258.9,125.8,59.5
0.201265,313.8,309.9,1155.2,352.7,2222.1,124.9,306.5,1224.2,2257.9,125.4,59.6
0.203265,309.7,264.6,1163.7,362.1,2204.7,141.8,305.4,1230.6,2256.5,125.1,59.7
0.205265,300.8,227.9,1178.3,332.3,2189.3,167.9,304.5,1236.6,2254.5,124.8,59.9
0.207265,297.2,213.7,1193.3,288.3,2185.9,206.7,303.7,1242.3,2252.1,124.4,59.9
0.209265,303.5,214.4,1204.7,266.7,2200.0,236.5,303.1,1247.7,2249.3,124.1,59.8
0.211265,313.1,217.3,1216.0,280.7,2219.0,197.0,302.7,1252.7,2246.1,123.8,59.7
0.213265,317.8,225.7,1234.7,353.8,2226.7,120.8,302.3,1257.4,2242.6,123.4,59.5
0.215265,322.7,233.2,1268.8,507.2,2231.0,76.0,302.1,1261.8,2238.9,123.1,59.5
0.217265,329.0,226.8,1304.9,677.5,2234.6,56.5,302,1265.9,2235,122.8,59.5
0.219265,327.5,217.8,1322.0,727.8,2238.2,47.2,301.9,1269.6,2231,122.5,59.6
0.221265,316.5,210.6,1327.7,609.2,2241.6,45.1,301.9,1273,2227,122.2,59.7
0.223265,307.7,198.9,1334.5,453.7,2244.3,50.5,302,1276,2223.1,121.8,59.7
0.225265,308.3,183.7,1336.4,344.5,2246.3,64.3,302.1,1278.8,2219.3,121.5,59.7
0.227265,311.9,173.6,1326.2,270.9,2246.0,87.4,302.2,1281.2,2215.8,121.2,59.7
0.229265,310.4,180.6,1303.0,220.9,2237.2,111.8,302.3,1283.3,2212.5,121,59.6
0.231265,305.0,201.9,1278.0,185.5,2217.4,129.4,302.5,1285,2209.7,120.7,59.5
0.233265,299.3,220.7,1263.1,165.6,2199.0,134.7,302.6,1286.4,2207.2,120.4,59.4
0.235265,291.7,229.1,1259.2,162.0,2197.3,124.3,302.7,1287.5,2205.3,120.2,59.3
0.237265,280.6,235.8,1264.4,181.9,2211.1,105.5,302.7,1288.3,2203.9,119.9,59.2
0.239265,271.1,252.9,1279.0,229.0,2225.6,90.1,302.8,1288.8,2203,119.7,58.9
0.241265,269.5,272.9,1308.2,284.2,2236.6,81.7,302.8,1289,2202.7,119.5,58.7
