time,f1,b1,f2,b2,f3,b3,f1p,f2p,f3p,f0,intensity
0.025698,382.1,22.0,1728.0,81.1,2289.0,201.0,381.2,1709.2,2273.7,128.3,66.4
0.027698,377.6,18.1,1729.3,91.5,2280.9,169.8,380.2,1712,2276.6,128,66.8
0.029698,375.7,15.4,1725.1,112.9,2271.2,142.0,378.6,1716.7,2281.4,127.8,67.1
0.031698,374.0,14.1,1717.8,142.5,2270.7,123.5,376.4,1723.5,2287.9,127.6,67.4
0.033698,371.3,13.9,1714.9,175.9,2279.5,114.6,373.6,1732.4,2295.9,127.4,67.7
0.035698,368.6,14.3,1722.8,210.7,2292.9,115.5,370.3,1743.6,2305.2,127.1,67.8
0.037698,367.0,14.5,1738.1,251.6,2305.6,133.6,366.5,1757.1,2315.6,126.9,67.8
0.039698,365.0,15.1,1757.6,313.5,2320.3,191.5,362.4,1773.1,2326.6,126.6,67.7
0.041698,361.0,16.7,1793.5,376.0,2354.5,318.7,357.9,1791.4,2338.3,126.4,67.5
0.043698,356.1,19.1,1839.2,356.4,2411.6,382.6,353.2,1811.9,2350.1,126.1,67.2
0.045698,352.3,21.4,1863.0,296.4,2399.7,343.5,348.3,1834.5,2362.1,125.9,66.8
0.047698,349.0,23.8,1875.4,241.6,2373.5,294.4,343.3,1858.7,2373.9,125.6,66.4
0.049698,342.9,26.9,1886.5,192.7,2370.3,249.5,338.2,1884.2,2385.4,125.4,66
0.051698,334.2,29.8,1898.3,156.3,2385.9,192.4,333.1,1910.4,2396.6,125.1,65.6
0.053698,326.8,31.7,1911.3,135.6,2402.0,127.3,328,1936.7,2407.4,124.9,65.2
0.055698,321.8,32.9,1928.6,140.7,2409.3,83.6,322.9,1962.3,2417.8,124.7,65
0.057698,317.1,33.9,1952.1,172.1,2410.9,67.3,318,1986.8,2427.7,124.4,64.8
0.059698,310.6,34.6,1984.0,218.9,2412.1,64.7,313.2,2009.3,2437.2,124.2,64.7
0.061698,303.7,35.3,2024.3,268.7,2415.9,72.6,308.6,2029.3,2446.4,124,64.7
0.063698,298.6,36.8,2068.4,298.1,2425.6,94.3,304.2,2046.3,2455.3,123.8,64.8
0.065698,295.2,40.0,2110.2,271.9,2449.6,135.9,300.1,2059.9,2463.8,123.6,64.8
0.067698,293.0,42.9,2124.9,201.8,2495.3,189.1,296.3,2069.8,2472,123.4,64.9
0.069698,290.9,41.4,2116.2,163.5,2531.1,231.8,292.9,2076,2479.7,123.2,65.1
0.071698,289.1,37.2,2096.7,157.3,2533.7,272.5,289.9,2078.5,2487.1,123.1,65.2
0.073698,287.6,33.9,2072.8,150.5,2518.6,285.7,287.3,2077.7,2493.8,122.9,65.4
0.075698,286.4,33.7,2057.0,133.6,2514.9,262.1,285.3,2073.8,2499.9,122.7,65.5
0.077698,286.6,36.4,2046.6,119.1,2511.0,228.4,283.8,2067.5,2505.1,122.6,65.6
0.079698,288.4,39.9,2038.1,118.7,2496.4,197.5,282.9,2059.3,2509.4,122.5,65.7
0.081698,289.7,40.9,2030.3,134.4,2484.6,178.1,282.5,2050,2512.4,122.3,65.7
0.083698,289.0,40.1,2021.2,158.1,2484.5,171.9,282.8,2040.2,2514.2,122.2,65.7
0.085698,287.1,40.1,2009.9,176.5,2492.9,176.2,283.6,2030.7,2514.6,122,65.7
0.087698,285.9,41.5,1999.1,175.4,2504.2,194.0,285,2021.9,2513.6,121.9,65.7
0.089698,286.2,43.0,1995.7,157.0,2511.0,215.5,286.8,2014.6,2511,121.8,65.8
0.091698,287.3,45.0,1997.3,141.9,2508.9,197.3,289,2008.9,2507,121.7,65.8
0.093698,288.8,48.6,2004.0,149.7,2501.5,140.5,291.5,2005.1,2501.7,121.5,65.8
0.095698,291.1,52.4,2019.9,190.1,2494.6,107.8,294.2,2003.2,2495.3,121.4,65.8
0.097698,295.0,54.7,2039.6,244.3,2487.1,98.5,296.9,2003.2,2487.9,121.3,65.8
0.099698,298.6,53.1,2046.8,272.0,2480.3,96.6,299.6,2004.7,2479.8,121.1,65.7
0.101698,299.6,49.5,2038.8,277.4,2477.7,100.9,302,2007.3,2471.5,121,65.6
0.103698,300.1,46.5,2026.4,295.0,2479.1,115.1,304,2010.6,2463.1,120.8,65.5
0.105698,302.1,45.0,2017.7,333.2,2481.4,135.6,305.6,2014,2455,120.7,65.4
0.107698,304.2,44.6,2019.3,363.6,2476.2,149.1,306.6,2017,2447.6,120.5,65.2
0.109698,305.2,45.4,2022.2,347.2,2455.5,143.4,306.9,2018.9,2441.2,120.4,65.1
0.111698,305.8,47.0,2009.6,287.0,2425.3,111.7,306.6,2019.4,2435.9,120.2,64.9
0.113698,306.4,47.8,1996.5,237.9,2408.5,87.5,305.5,2018.1,2431.9,120,64.6
0.115698,305.8,46.8,1991.3,213.4,2405.1,81.6,303.8,2014.7,2429.3,119.9,64.3
0.117698,303.3,45.0,1988.1,199.2,2408.6,87.7,301.4,2009.2,2428.2,119.7,64
0.119698,300.7,44.0,1983.2,188.2,2413.9,99.9,298.5,2001.7,2428.5,119.5,63.7
0.121698,298.9,43.8,1976.2,179.4,2418.7,111.7,295.1,1992.5,2430,119.4,63.3
0.123698,297.1,43.7,1969.2,173.4,2425.2,119.2,291.5,1981.8,2432.5,119.2,62.9
0.125698,293.2,43.7,1964.8,170.0,2439.1,127.1,287.7,1970.3,2435.8,119,62.4
0.127698,288.2,44.8,1965.2,172.4,2460.9,139.4,284,1958.6,2439.5,118.9,61.8
0.129698,283.7,48.2,1969.6,187.3,2478.3,150.8,280.5,1947.1,2443.4,118.7,61.1
0.131698,280.4,56.3,1970.7,222.4,2473.1,154.3,277.4,1936.8,2447,118.6,60.3
0.133698,277.4,69.8,1957.6,264.7,2456.1,147.4,274.8,1928,2450.2,118.4,59.3
0.135698,271.2,83.1,1932.0,299.8,2443.0,136.1,272.9,1921.3,2452.7,118.3,58.3
0.137698,263.1,91.4,1905.2,322.0,2438.0,131.0,271.7,1917.1,2454.3,118.1,57.3
0.139698,259.0,98.7,1886.0,354.1,2436.5,144.8,271.2,1915.7,2454.8,118,56.3
