time,f1,b1,f2,b2,f3,b3,f1p,f2p,f3p,f0,intensity
0.025728,430.1,135.8,1421.6,95.8,2293.0,183.5,441.5,1445.3,2271.2,177.9,80.8
0.027728,433.5,127.3,1415.9,88.4,2274.3,198.1,442.3,1443.9,2271.4,177.8,80.8
0.029728,437.0,122.1,1412.9,83.8,2258.0,195.7,443.6,1441.6,2271.6,177.8,80.8
0.031728,440.9,121.8,1413.3,82.5,2251.7,191.3,445.3,1438.3,2271.9,177.8,80.9
0.033728,445.4,124.4,1416.1,84.1,2251.4,200.4,447.5,1434.2,2272.4,177.7,80.9
0.035728,450.1,126.7,1419.7,87.2,2253.4,223.2,450,1429.2,2272.9,177.6,80.9
0.037728,454.7,126.7,1422.6,90.7,2258.0,247.1,453,1423.5,2273.5,177.6,80.9
0.039728,459.5,124.0,1423.9,95.7,2265.8,251.0,456.2,1417,2274.2,177.5,80.9
0.041728,464.7,119.6,1423.3,103.9,2274.3,229.3,459.7,1409.9,2275,177.4,80.9
0.043728,470.1,114.2,1420.9,116.5,2281.8,199.3,463.4,1402.1,2275.9,177.3,80.8
0.045728,475.3,108.0,1417.9,134.1,2289.0,174.1,467.2,1393.9,2276.8,177.2,80.8
0.047728,479.5,101.0,1414.0,158.0,2295.3,154.2,471.1,1385.1,2277.8,177.1,80.7
0.049728,482.5,93.8,1407.4,187.7,2298.2,135.3,475,1376,2278.8,177,80.7
0.051728,485.1,87.9,1398.2,219.4,2297.3,115.0,478.8,1366.5,2279.9,176.9,80.7
0.053728,487.5,84.1,1388.7,248.1,2294.6,95.7,482.4,1356.8,2280.9,176.8,80.6
0.055728,489.4,81.1,1378.5,272.6,2291.1,80.4,485.9,1346.9,2282,176.7,80.6
0.057728,490.9,78.0,1366.1,296.5,2287.5,69.1,489.1,1336.9,2283.1,176.5,80.6
0.059728,492.2,74.9,1350.2,322.3,2284.8,60.6,491.9,1326.9,2284.1,176.4,80.6
0.061728,493.7,72.2,1331.3,348.9,2284.2,54.3,494.4,1316.9,2285.1,176.3,80.6
0.063728,495.1,69.9,1311.4,377.7,2285.9,50.2,496.4,1307,2286,176.1,80.7
0.065728,496.1,68.2,1293.0,410.7,2288.7,48.5,497.9,1297.3,2286.9,176,80.7
0.067728,496.6,66.6,1276.7,444.6,2291.0,49.0,498.9,1287.7,2287.6,175.8,80.7
0.069728,496.3,64.6,1260.2,472.5,2291.5,51.1,499.4,1278.3,2288.1,175.7,80.7
0.071728,495.1,62.2,1243.1,485.5,2290.4,54.0,499.3,1269.2,2288.5,175.5,80.7
0.073728,493.4,59.8,1227.0,480.3,2288.8,57.3,498.6,1260.3,2288.7,175.4,80.8
0.075728,491.6,57.9,1212.7,461.8,2288.1,62.4,497.4,1251.7,2288.7,175.2,80.8
0.077728,489.9,56.8,1201.8,435.0,2288.8,70.0,495.5,1243.3,2288.5,175.1,80.8
0.079728,488.3,56.2,1195.5,402.1,2290.6,78.6,493.1,1235.3,2288,174.9,80.8
0.081728,486.2,55.4,1192.3,362.3,2291.9,86.4,490.1,1227.5,2287.2,174.8,80.7
0.083728,483.6,54.0,1190.5,318.3,2292.3,93.9,486.5,1219.9,2286.2,174.7,80.7
0.085728,480.4,52.7,1189.4,278.1,2292.6,104.3,482.5,1212.6,2284.8,174.5,80.7
0.087728,476.5,52.1,1188.5,247.1,2290.9,123.0,477.9,1205.4,2283.1,174.4,80.6
0.089728,472.1,52.5,1187.0,226.0,2280.4,158.8,473,1198.4,2281.1,174.3,80.6
0.091728,467.0,54.1,1185.4,215.5,2253.3,214.3,467.6,1191.5,2278.9,174.2,80.5
0.093728,461.9,57.5,1186.6,214.8,2219.9,268.1,462,1184.7,2276.2,174,80.4
0.095728,457.4,63.7,1193.8,221.7,2209.0,295.5,456,1177.9,2273.3,173.9,80.4
0.097728,453.4,72.7,1204.9,232.6,2225.8,287.3,449.8,1171,2270.1,173.8,80.3
0.099728,448.8,82.5,1214.9,245.1,2250.1,252.9,443.5,1164.1,2266.7,173.8,80.3
0.101728,443.6,91.7,1220.8,260.8,2268.4,213.9,437,1157.1,2263,173.7,80.2
0.103728,437.7,99.9,1220.4,281.6,2276.7,184.3,430.5,1150,2259,173.6,80.2
0.105728,431.2,106.8,1209.3,306.3,2276.7,168.5,424,1142.6,2254.9,173.5,80.2
0.107728,423.4,111.7,1181.3,328.6,2272.0,166.7,417.5,1135,2250.6,173.5,80.2
0.109728,414.2,113.7,1139.8,333.1,2265.8,172.5,411.2,1127.2,2246.2,173.4,80.2
0.111728,405.6,115.5,1104.6,315.9,2262.0,171.6,405,1119,2241.7,173.3,80.3
0.113728,399.0,120.3,1086.1,293.3,2262.7,161.5,399,1110.6,2237.2,173.3,80.3
0.115728,393.6,126.7,1077.4,270.4,2264.3,151.7,393.2,1101.9,2232.7,173.2,80.3
0.117728,387.7,129.3,1067.6,242.8,2263.6,149.7,387.7,1092.9,2228.3,173.2,80.4
0.119728,381.0,125.9,1054.5,209.8,2259.6,157.2,382.5,1083.5,2224,173.2,80.5
0.121728,374.7,119.1,1042.7,176.5,2251.3,173.0,377.6,1073.9,2219.9,173.1,80.6
0.123728,369.3,112.1,1034.4,148.1,2235.8,201.5,373,1064,2215.9,173.1,80.6
0.125728,364.5,105.9,1028.7,126.4,2207.6,245.9,368.8,1054,2212.2,173.1,80.7
0.127728,360.4,100.1,1024.7,110.6,2170.8,283.2,365,1043.7,2208.8,173,80.8
0.129728,357.6,95.3,1022.2,100.0,2151.4,287.3,361.5,1033.3,2205.7,173,80.9
0.131728,355.8,91.7,1020.3,94.9,2157.3,275.6,358.4,1022.8,2203,173,80.9
0.133728,354.2,88.0,1018.8,94.9,2173.8,271.6,355.6,1012.3,2200.6,173,81
0.135728,352.7,82.9,1017.0,100.0,2190.0,285.2,353.2,1001.9,2198.7,172.9,81.1
0.137728,350.7,75.8,1013.4,110.8,2199.6,313.7,351.1,991.6,2197.2,172.9,81.3
0.139728,348.5,67.3,1005.2,129.5,2199.8,339.3,349.3,981.6,2196.1,172.9,81.4
0.141728,346.3,60.1,989.1,160.2,2196.8,338.3,347.7,971.8,2195.4,172.9,81.4
0.143728,344.7,56.6,964.5,208.7,2199.5,312.1,346.5,962.4,2195.2,172.9,81.5
0.145728,343.9,57.2,937.2,273.8,2206.1,284.1,345.5,953.6,2195.4,172.8,81.6
0.147728,344.1,59.2,919.0,337.0,2210.0,269.0,344.7,945.3,2196,172.8,81.6
0.149728,344.5,60.5,913.5,387.3,2208.9,268.2,344,937.6,2196.9,172.8,81.7
0.151728,344.9,61.7,914.3,438.3,2205.3,277.0,343.6,930.7,2198.2,172.7,81.7
0.153728,345.4,62.8,916.6,497.4,2200.4,287.2,343.3,924.6,2199.8,172.7,81.7
0.155728,345.6,63.1,917.9,553.3,2194.1,290.0,343,919.5,2201.6,172.7,81.8
0.157728,345.4,62.4,917.3,596.4,2187.7,283.1,342.9,915.3,2203.7,172.6,81.8
0.159728,345.2,61.6,914.1,630.3,2183.8,272.2,342.8,912.1,2205.9,172.6,81.8
0.161728,345.2,61.1,909.8,660.6,2185.9,264.6,342.8,910.1,2208.2,172.6,81.8
0.163728,345.2,60.4,909.9,686.0,2195.7,259.9,342.8,909.2,2210.5,172.5,81.8
0.165728,345.0,59.2,918.2,706.1,2211.5,253.8,342.7,909.4,2212.8,172.4,81.8
0.167728,344.4,57.5,928.2,715.1,2226.4,247.2,342.7,910.9,2215,172.4,81.8
0.169728,343.6,55.4,932.9,715.1,2235.0,243.1,342.7,913.6,2217.1,172.3,81.8
0.171728,343.1,53.8,932.9,726.9,2237.9,239.2,342.6,917.6,2219,172.2,81.8
0.173728,342.9,52.8,928.9,753.1,2237.4,228.5,342.4,922.8,2220.6,172.2,81.8
0.175728,342.5,51.4,922.1,762.0,2235.3,208.6,342.2,929.1,2221.9,172.1,81.8
0.177728,342.0,49.2,922.8,738.6,2233.9,187.4,342,936.7,2222.9,172,81.8
0.179728,341.3,46.4,936.9,695.2,2232.9,173.5,341.7,945.4,2223.5,171.9,81.8
0.181728,340.5,43.4,957.0,640.3,2229.7,167.9,341.4,955.2,2223.7,171.7,81.7
0.183728,339.5,40.3,975.1,575.6,2223.7,165.4,341,966,2223.5,171.6,81.7
0.185728,338.2,37.3,990.8,507.5,2217.0,158.6,340.6,977.7,2222.8,171.5,81.8
0.187728,337.2,35.0,1009.9,451.4,2212.4,145.1,340.1,990.3,2221.7,171.3,81.8
0.189728,336.8,34.3,1034.8,415.5,2211.3,129.5,339.6,1003.7,2220.1,171.2,81.8
0.191728,336.9,35.5,1062.8,390.9,2212.7,115.8,339,1017.7,2218.1,171,81.8
0.193728,337.3,38.1,1084.5,354.3,2214.2,103.9,338.5,1032.2,2215.6,170.8,81.8
0.195728,337.3,40.2,1089.1,292.8,2213.3,94.9,337.9,1047.2,2212.7,170.7,81.8
0.197728,336.7,40.3,1081.1,219.5,2209.4,90.1,337.3,1062.4,2209.5,170.5,81.9
0.199728,336.0,38.8,1072.3,156.8,2203.1,88.1,336.7,1077.9,2206,170.3,81.9
0.201728,335.6,37.5,1067.5,115.3,2196.4,86.4,336.1,1093.4,2202.1,170,82
0.203728,335.4,38.0,1066.8,92.3,2191.1,84.0,335.5,1108.8,2198.1,169.8,82
0.205728,335.3,40.2,1069.8,81.9,2185.6,81.3,334.9,1123.9,2193.9,169.6,82.1
0.207728,335.3,43.4,1076.1,81.1,2179.8,78.8,334.4,1138.7,2189.6,169.4,82.1
0.209728,335.2,46.8,1084.7,89.9,2176.9,76.6,333.9,1153,2185.2,169.2,82.2
0.211728,335.2,49.7,1096.1,111.0,2177.6,74.7,333.4,1166.7,2180.9,168.9,82.2
0.213728,335.0,51.1,1113.6,147.2,2179.8,74.3,332.9,1179.7,2176.7,168.7,82.3
0.215728,334.5,50.2,1142.0,190.0,2181.4,77.3,332.5,1191.8,2172.6,168.5,82.3
0.217728,333.6,47.2,1175.4,211.7,2181.5,83.2,332.1,1203,2168.8,168.2,82.3
0.219728,332.4,44.6,1198.2,206.0,2178.9,90.0,331.8,1213.1,2165.2,168,82.3
0.221728,331.4,43.0,1210.6,194.6,2173.1,97.0,331.5,1222,2162,167.8,82.3
0.223728,330.9,42.1,1223.2,189.4,2164.5,104.7,331.2,1229.7,2159.2,167.6,82.4
0.225728,330.7,41.7,1242.9,191.4,2155.3,113.6,331,1236.1,2156.9,167.4,82.4
0.227728,330.7,40.9,1271.3,196.8,2148.8,123.3,330.8,1241.1,2155,167.2,82.4
0.229728,330.4,39.4,1304.3,198.3,2146.7,131.4,330.7,1244.8,2153.7,167,82.4
0.231728,329.7,37.9,1333.2,195.3,2148.3,136.8,330.7,1247,2152.8,166.8,82.5
0.233728,329.0,37.6,1355.9,193.9,2151.5,142.4,330.6,1247.7,2152.6,166.6,82.5
