time,f1,b1,f2,b2,f3,b3,f1p,f2p,f3p,f0,intensity
0.025184,265.1,64.4,1576.7,271.0,2262.9,43.4,287.2,1612.6,2277.5,112,69.3
0.027184,270.2,64.8,1593.8,307.4,2268.1,70.0,287.5,1618.9,2277.1,112.1,69.2
0.029184,280.0,66.3,1623.0,361.0,2276.9,112.5,287.9,1629.3,2276.5,112.3,69.1
0.031184,293.7,67.9,1668.1,422.3,2286.4,144.8,288.3,1643.1,2275.8,112.4,69
0.033184,303.1,68.8,1710.4,446.6,2289.7,140.1,288.7,1660,2275.2,112.5,69
0.035184,306.5,70.5,1728.5,417.4,2287.5,123.3,289,1679.3,2274.9,112.7,69
0.037184,305.9,73.1,1722.7,356.5,2283.6,110.4,289,1700.2,2274.9,112.8,69.2
0.039184,302.4,75.8,1715.6,297.3,2278.6,99.2,288.6,1722,2275.5,112.9,69.4
0.041184,296.4,77.1,1717.6,258.9,2273.3,89.2,287.8,1744,2276.7,113,69.7
0.043184,289.6,77.5,1729.9,239.9,2270.2,83.2,286.6,1765.3,2278.5,113.2,70
0.045184,283.1,77.4,1751.3,240.3,2270.5,85.1,284.8,1785.3,2281.1,113.3,70.3
0.047184,276.9,76.7,1780.4,257.9,2273.2,93.3,282.6,1803.5,2284.4,113.4,70.5
0.049184,270.7,74.1,1809.6,284.2,2275.5,101.6,280,1819.4,2288.2,113.5,70.8
0.051184,265.1,70.3,1834.9,300.7,2278.8,106.7,277.1,1832.8,2292.3,113.6,70.9
0.053184,261.8,67.1,1853.9,276.5,2288.3,112.6,274,1843.4,2296.7,113.6,71.1
0.055184,261.1,62.6,1863.3,226.4,2303.8,127.1,270.8,1851.3,2301.1,113.7,71.1
0.057184,262.3,56.2,1865.4,193.3,2318.2,152.2,267.8,1856.7,2305.3,113.8,71
0.059184,263.9,52.6,1867.8,182.5,2327.1,169.6,265.1,1859.9,2309,113.8,70.8
0.061184,264.7,54.5,1875.1,183.1,2334.9,158.5,262.8,1861.2,2312.1,113.8,70.5
0.063184,266.2,60.4,1887.2,186.3,2341.6,130.3,261,1861.2,2314.5,113.9,70.1
0.065184,269.1,64.5,1896.1,177.9,2340.7,108.4,259.8,1860.5,2316.2,113.9,69.8
0.067184,271.1,61.0,1887.8,154.3,2325.5,100.1,259.2,1859.6,2317.1,113.8,69.4
0.069184,269.4,53.4,1865.9,135.2,2298.4,100.2,259.2,1859.1,2317.4,113.8,69
0.071184,264.8,46.6,1841.7,123.0,2277.7,103.6,259.8,1859.6,2317.1,113.8,68.7
0.073184,260.7,42.1,1824.7,114.5,2274.6,112.3,260.9,1861.5,2316.5,113.7,68.4
0.075184,259.3,38.5,1815.9,113.2,2284.0,126.4,262.3,1865.1,2315.8,113.7,68.2
0.077184,259.4,36.1,1815.0,129.5,2303.8,151.9,263.8,1870.6,2315.3,113.6,67.9
0.079184,259.2,37.1,1825.8,173.1,2329.5,193.6,265.3,1878.2,2315.1,113.5,67.6
0.081184,259.3,41.9,1860.3,254.4,2344.3,242.4,266.6,1887.6,2315.5,113.4,67.2
0.083184,262.1,47.0,1920.3,349.3,2332.4,272.2,267.6,1898.8,2316.6,113.3,66.8
0.085184,266.7,46.8,1963.6,391.3,2315.7,255.9,268,1911.2,2318.4,113.2,66.3
0.087184,268.9,43.5,1979.9,360.3,2318.9,208.6,267.7,1924.4,2321.1,113.1,65.7
0.089184,267.3,42.6,1987.7,277.2,2334.4,145.6,266.8,1937.8,2324.4,112.9,65.2
0.091184,264.4,45.6,1989.0,207.2,2345.4,95.2,265.1,1950.8,2328.1,112.8,64.7
0.093184,263.1,51.0,1988.2,174.8,2351.7,68.7,262.8,1962.5,2332,112.7,64.2
0.095184,263.4,56.4,1986.6,175.9,2354.7,60.0,259.8,1972.5,2335.8,112.5,63.7
0.097184,262.9,62.5,1983.0,202.4,2354.4,62.6,256.4,1980,2338.9,112.4,63.1
0.099184,259.9,70.6,1972.0,262.0,2348.6,76.6,252.6,1984.4,2341,112.2,62.6
0.101184,253.4,77.7,1941.8,361.3,2332.0,101.6,248.7,1985.4,2341.7,112.1,62.1
0.103184,244.4,77.1,1898.9,417.2,2307.4,121.8,244.8,1982.7,2340.7,111.9,61.6
0.105184,237.3,67.3,1900.2,387.6,2290.7,135.8,241.1,1976.1,2337.6,111.8,61.3
0.107184,233.5,58.3,1929.6,338.5,2287.8,143.4,237.7,1965.6,2332.3,111.7,61.1
0.109184,230.4,54.5,1953.0,314.5,2293.4,139.9,234.9,1951.6,2324.8,111.5,60.9
0.111184,226.0,55.2,1960.9,332.1,2299.6,135.0,232.6,1934.4,2315,111.4,60.8
0.113184,221.8,57.3,1951.7,369.5,2305.5,135.4,231,1914.5,2303.4,111.3,60.6
0.115184,221.3,61.2,1932.4,389.2,2312.3,142.5,230,1892.7,2290.2,111.1,60.4
0.117184,225.3,68.9,1915.7,396.7,2317.0,149.1,229.6,1869.9,2275.9,111,59.9
0.119184,232.6,80.1,1890.8,430.7,2313.2,146.8,229.7,1846.8,2261,110.9,59.2
0.121184,241.4,95.5,1843.6,499.7,2299.3,136.5,230.2,1824.4,2246.3,110.8,58.3
0.123184,250.2,125.1,1798.1,588.6,2278.4,126.4,230.9,1803.6,2232.4,110.7,57.2
0.125184,257.7,187.0,1793.0,725.7,2251.0,135.6,231.8,1785.2,2220,110.6,56
0.127184,260.7,291.7,1802.7,943.2,2215.9,161.5,232.6,1770.1,2209.6,110.6,54.8
0.129184,249.7,439.8,1753.3,1218.9,2176.2,178.6,233.4,1758.8,2201.8,110.5,53.6
0.131184,216.2,591.9,1680.6,1413.4,2148.0,192.0,233.8,1751.8,2197,110.4,52.5
0.133184,175.3,701.5,1711.8,1649.9,2122.9,240.1,234,1749.5,2195.3,110.4,51.5
