time,f1,b1,f2,b2,f3,b3,f1p,f2p,f3p,f0,intensity
0.025333,380.1,208.7,1189.7,220.3,2034.4,301.9,411.6,1160.5,1980.6,148.9,75.2
0.027333,385.7,171.9,1184.1,234.5,1982.1,329.2,413,1158.4,1982.3,148.3,76.4
0.029333,398.2,153.9,1176.6,263.0,1965.4,348.5,415.3,1154.7,1985.1,147.7,77.4
0.031333,417.5,138.8,1159.8,286.8,1979.5,331.5,418.3,1149.7,1988.9,147,78.1
0.033333,434.4,125.2,1135.3,284.3,2003.7,280.3,421.9,1143.1,1993.7,146.4,78.6
0.035333,443.8,117.9,1115.1,272.2,2018.2,230.5,426,1135.1,1999.5,145.7,79
0.037333,448.2,119.2,1103.4,283.3,2018.6,195.3,430.3,1125.7,2006.2,145,79.2
0.039333,450.4,126.5,1099.5,333.3,2008.3,182.4,434.7,1114.8,2013.6,144.3,79.3
0.041333,453.7,133.9,1095.5,410.7,1995.4,186.7,439,1102.7,2021.8,143.6,79.4
0.043333,458.0,139.6,1085.3,466.6,1989.4,206.7,442.9,1089.2,2030.4,142.9,79.4
0.045333,461.1,145.1,1069.5,474.3,1998.7,242.2,446.3,1074.7,2039.6,142.2,79.3
0.047333,460.7,146.9,1046.7,436.0,2028.9,283.1,449,1059.3,2049,141.6,79.3
0.049333,456.4,140.4,1020.6,364.2,2066.5,286.3,450.9,1043.1,2058.5,140.9,79.2
0.051333,450.7,131.5,1000.7,290.2,2087.9,249.3,451.8,1026.4,2068.1,140.3,79.2
0.053333,444.7,124.0,988.6,225.2,2093.9,206.0,451.8,1009.5,2077.4,139.7,79.3
0.055333,440.1,117.9,981.4,183.4,2093.3,181.5,450.7,992.6,2086.4,139.1,79.3
0.057333,437.4,112.1,974.9,159.3,2094.5,173.3,448.6,976,2094.9,138.5,79.4
0.059333,435.7,111.0,968.6,152.8,2102.3,178.1,445.6,960.1,2102.7,137.9,79.5
0.061333,433.7,113.9,962.1,157.1,2114.0,186.7,441.7,945.1,2109.7,137.4,79.7
0.063333,431.1,113.4,954.8,161.0,2123.0,191.7,437.1,931.3,2115.7,136.9,79.8
0.065333,427.4,106.0,948.4,159.4,2126.9,196.1,432,918.8,2120.7,136.4,80
0.067333,422.2,97.1,943.0,159.9,2129.1,208.2,426.4,908,2124.5,136,80.3
0.069333,416.0,88.5,934.6,164.0,2130.7,226.1,420.6,898.9,2127.2,135.6,80.5
0.071333,411.2,79.4,919.8,161.3,2129.9,231.8,414.7,891.4,2128.7,135.2,80.6
0.073333,407.2,70.4,902.6,150.5,2130.5,220.6,408.9,885.7,2128.9,134.8,80.8
0.075333,401.8,63.4,885.3,145.1,2135.0,203.7,403.4,881.7,2128,134.5,81
0.077333,397.1,60.9,870.9,155.1,2136.5,192.9,398.4,879,2126,134.2,81.1
0.079333,395.1,61.0,858.7,174.7,2129.3,189.3,393.8,877.6,2123,134,81.1
0.081333,395.1,62.0,851.2,193.9,2117.9,195.5,389.9,877.1,2119.1,133.8,81.1
0.083333,394.3,63.5,846.7,213.8,2109.6,212.1,386.6,877.3,2114.5,133.6,81.1
0.085333,392.1,63.3,841.3,235.0,2103.9,233.3,384,877.6,2109.3,133.4,81
0.087333,390.2,58.7,835.6,248.3,2097.1,245.4,382,877.8,2103.6,133.3,80.7
0.089333,389.0,51.1,834.1,258.4,2088.2,243.6,380.7,877.5,2097.7,133.1,80.4
0.091333,387.0,42.8,842.6,281.1,2079.7,232.9,380,876.4,2091.7,133.1,80
0.093333,383.4,35.7,865.8,310.7,2074.9,226.3,379.7,874.2,2085.8,133,79.4
0.095333,380.3,30.9,894.5,315.5,2073.1,229.2,379.7,870.7,2080,133,78.8
0.097333,379.4,28.4,912.4,296.6,2070.4,235.0,380,865.9,2074.6,133,78.1
0.099333,379.4,28.2,909.4,283.3,2065.9,232.9,380.3,859.6,2069.6,133,77.4
0.101333,378.0,28.9,890.8,280.0,2062.8,221.1,380.7,851.9,2065.1,133,76.7
0.103333,376.0,29.7,869.8,277.7,2062.9,215.2,381,843.2,2061,133,76.2
0.105333,375.0,30.4,854.0,277.5,2063.3,227.6,381,833.6,2057.5,133.1,75.8
0.107333,373.9,31.9,836.7,287.6,2061.9,251.8,380.8,823.7,2054.3,133.2,75.5
0.109333,373.0,33.8,817.5,307.1,2058.5,259.8,380.2,813.9,2051.6,133.2,75.3
0.111333,373.6,35.9,800.0,333.6,2054.0,241.2,379.3,804.8,2049.1,133.3,75.1
0.113333,374.9,38.6,780.8,374.4,2049.8,210.1,377.9,797,2046.8,133.4,75
0.115333,374.7,41.7,763.1,422.0,2049.0,188.2,376.3,791.3,2044.4,133.5,74.9
0.117333,373.8,45.2,755.8,475.6,2050.0,181.2,374.3,788.2,2042,133.6,74.8
0.119333,374.1,50.1,761.3,538.1,2048.3,186.1,372,788.4,2039.3,133.7,74.7
0.121333,374.4,56.3,765.8,603.9,2042.6,191.6,369.6,792.4,2036.1,133.8,74.6
0.123333,372.1,61.9,770.9,653.4,2035.2,196.9,367.1,800.7,2032.5,133.9,74.4
0.125333,367.9,63.6,799.3,628.0,2028.4,206.9,364.6,813.7,2028.1,134,74.2
0.127333,363.7,62.3,848.0,509.1,2021.9,216.1,362.1,831.5,2023.1,134,74
0.129333,359.5,59.5,892.9,356.2,2013.9,213.4,359.9,854.3,2017.2,134.1,73.8
0.131333,355.6,56.6,924.8,248.4,2005.3,201.3,357.8,881.7,2010.6,134.1,73.6
0.133333,353.9,55.9,949.9,197.0,1997.6,190.4,356.1,913.7,2003.2,134.2,73.5
0.135333,354.0,57.3,973.6,179.8,1989.8,179.4,354.7,949.5,1995.2,134.2,73.3
0.137333,354.0,58.0,995.8,184.5,1982.0,169.0,353.7,988.7,1986.6,134.2,73.3
0.139333,354.4,57.7,1026.2,200.5,1972.1,161.7,353,1030.4,1977.5,134.2,73.3
0.141333,356.2,58.7,1066.3,209.2,1961.4,156.9,352.7,1073.6,1968.2,134.2,73.3
0.143333,357.8,61.3,1102.2,201.5,1953.0,152.0,352.7,1117.3,1958.8,134.1,73.4
0.145333,357.7,64.3,1134.9,189.3,1945.1,150.8,352.9,1160.5,1949.6,134.1,73.5
0.147333,357.3,67.4,1170.7,184.3,1936.2,157.2,353.4,1202,1940.8,134,73.6
0.149333,357.1,70.0,1207.7,182.7,1926.5,161.7,354,1240.7,1932.5,134,73.7
0.151333,355.5,70.4,1244.8,180.7,1918.1,156.2,354.7,1275.6,1925.1,133.9,73.9
0.153333,353.7,68.9,1281.2,182.9,1914.6,146.5,355.3,1305.5,1918.8,133.8,74.1
0.155333,353.5,68.2,1326.1,187.3,1915.2,137.3,355.9,1329.8,1913.6,133.8,74.3
0.157333,353.7,68.7,1367.0,182.3,1918.3,127.7,356.4,1347.6,1909.8,133.7,74.5
0.159333,352.1,68.9,1392.4,172.5,1921.3,118.9,356.7,1358.6,1907.5,133.6,74.7
0.161333,350.2,69.6,1413.7,172.3,1924.1,115.6,356.8,1362.2,1906.7,133.5,75
