time,f1,b1,f2,b2,f3,b3,f1p,f2p,f3p,f0,intensity
0.026009,423.2,89.1,1093.4,234.0,2284.3,165.7,433.6,1093.5,2231.8,155.5,71.3
0.028009,433.1,87.6,1093.2,206.9,2193.3,926.6,436.7,1094.6,2230.5,155.3,71.6
0.030009,441.7,88.5,1097.4,189.3,2192.6,898.7,441.8,1096.4,2228.3,155.1,71.9
0.032009,448.4,90.2,1097.4,178.0,2224.6,900.6,448.7,1098.7,2225.2,154.9,72.1
0.034009,455.3,94.0,1093.0,173.7,2252.9,938.5,457,1101.3,2221.2,154.6,72.3
0.036009,463.5,101.8,1092.3,178.5,2239.2,198.4,466.6,1104,2216.4,154.4,72.5
0.038009,475.3,114.4,1099.4,192.0,2214.7,188.0,477.1,1106.7,2210.8,154.1,72.5
0.040009,491.3,127.8,1111.7,208.2,2194.1,170.5,488,1109.1,2204.4,153.8,72.6
0.042009,508.2,136.8,1123.6,218.4,2178.0,159.6,499.1,1110.9,2197.5,153.5,72.6
0.044009,522.6,141.0,1131.0,218.8,2166.1,154.1,510,1112,2190.2,153.1,72.5
0.046009,532.1,142.0,1129.6,214.0,2162.8,153.7,520.5,1112.3,2182.7,152.8,72.4
0.048009,538.4,141.2,1121.1,208.0,2167.6,156.4,530.2,1111.5,2175.2,152.4,72.2
0.050009,542.4,139.7,1110.3,203.2,2175.4,156.8,538.9,1109.6,2168,152,72
0.052009,545.0,137.8,1100.9,202.0,2178.4,149.2,546.5,1106.7,2161.4,151.6,71.8
0.054009,548.6,135.2,1093.2,202.7,2172.8,132.4,553,1102.8,2155.7,151.2,71.7
0.056009,553.5,133.5,1088.2,202.0,2163.2,117.5,558.3,1097.8,2151.3,150.7,71.6
0.058009,558.0,134.5,1083.6,201.4,2154.0,113.0,562.5,1092,2148.2,150.3,71.6
0.060009,559.6,138.5,1077.3,203.8,2147.9,122.0,565.7,1085.6,2146.9,149.8,71.7
0.062009,559.1,143.5,1070.0,207.0,2146.7,138.7,568,1078.6,2147.3,149.4,71.8
0.064009,559.9,147.8,1064.4,208.9,2150.0,152.5,569.5,1071.4,2149.6,148.9,72
0.066009,562.9,151.0,1062.1,211.6,2154.3,156.7,570.6,1064,2153.8,148.4,72.2
0.068009,567.5,153.3,1061.9,216.0,2158.0,154.6,571.3,1056.7,2159.7,147.9,72.4
0.070009,572.7,156.0,1061.4,222.5,2161.6,152.2,571.8,1049.7,2167.1,147.3,72.5
0.072009,576.0,158.7,1055.4,234.0,2168.6,157.5,572.4,1043.1,2175.7,146.8,72.6
0.074009,576.2,157.4,1043.6,241.0,2180.1,173.5,573.1,1036.9,2185.1,146.3,72.7
0.076009,576.5,152.3,1033.2,234.6,2192.5,196.4,574,1031.3,2194.9,145.7,72.8
0.078009,579.0,147.2,1025.8,219.6,2201.0,224.0,575.2,1026.3,2204.7,145.2,72.8
0.080009,583.0,143.5,1018.4,204.0,2205.5,258.5,576.6,1021.9,2214,144.6,72.8
0.082009,587.0,140.3,1011.4,191.7,2213.2,298.4,578.3,1018,2222.3,144,72.9
0.084009,589.0,136.8,1009.3,183.7,2231.8,313.5,580.1,1014.6,2229.3,143.4,72.9
0.086009,588.1,133.8,1010.7,178.6,2248.4,271.3,582,1011.6,2234.5,142.8,73
0.088009,585.4,132.9,1012.0,178.7,2249.1,204.2,583.9,1008.9,2237.8,142.2,73.1
0.090009,584.1,133.0,1011.4,179.9,2243.5,153.3,585.6,1006.5,2239.1,141.5,73.2
0.092009,585.3,131.8,1009.3,174.7,2238.5,120.2,586.9,1004.2,2238.2,140.9,73.3
0.094009,586.6,129.6,1006.4,165.0,2236.5,102.6,587.8,1002,2235.2,140.3,73.3
0.096009,586.4,128.7,1002.5,156.3,2236.3,94.0,588.1,999.8,2230.5,139.6,73.3
0.098009,585.4,131.6,997.8,151.1,2233.5,91.4,587.7,997.6,2224.1,138.9,73.2
0.100009,583.1,141.0,991.6,150.0,2220.7,91.7,586.6,995.3,2216.6,138.2,73.2
0.102009,577.3,151.9,984.4,150.4,2200.6,89.7,584.7,993,2208.4,137.5,73.1
0.104009,569.8,156.4,979.1,148.4,2184.7,82.8,582,990.6,2199.8,136.8,73.1
0.106009,565.4,152.9,978.9,145.4,2178.2,74.7,578.6,988.3,2191.2,136.1,73
0.108009,564.7,145.0,982.7,145.4,2176.3,69.2,574.5,986,2183.2,135.4,72.9
0.110009,564.6,134.6,986.9,150.6,2174.1,67.0,569.8,983.8,2176.1,134.7,72.8
0.112009,563.5,126.5,987.3,155.6,2170.2,67.0,564.6,981.7,2170.1,134,72.7
0.114009,561.4,124.5,983.3,157.3,2166.5,67.3,559,979.8,2165.4,133.3,72.6
0.116009,559.2,130.5,978.2,161.7,2164.8,69.2,553.3,978.1,2162.1,132.6,72.6
0.118009,559.7,141.5,976.0,171.4,2165.5,75.1,547.5,976.6,2160.2,131.9,72.7
0.120009,563.9,153.9,978.7,178.9,2169.9,80.9,541.8,975.4,2159.6,131.2,72.7
0.122009,564.7,165.7,983.3,178.0,2174.2,81.4,536.3,974.4,2160,130.5,72.8
0.124009,553.8,174.6,985.8,170.5,2172.0,79.8,531.3,973.6,2161.3,129.9,72.7
0.126009,533.6,171.9,985.5,157.7,2162.5,78.7,526.8,973,2163.1,129.2,72.7
0.128009,517.2,162.8,981.9,142.2,2152.8,79.4,523,972.6,2165.1,128.6,72.6
0.130009,508.2,159.3,974.7,126.5,2149.5,83.6,519.9,972.3,2167,128,72.5
0.132009,503.1,162.5,966.2,116.5,2156.0,88.8,517.6,972.1,2168.6,127.5,72.4
0.134009,500.5,165.9,958.3,110.6,2170.3,85.7,516.2,972,2169.6,126.9,72.4
0.136009,501.9,167.9,952.5,104.2,2186.2,73.8,515.7,971.9,2170,126.4,72.4
