time,f1,b1,f2,b2,f3,b3,f1p,f2p,f3p,f0,intensity
0.025070,439.6,62.7,939.7,119.7,2257.9,295.1,454.5,932.9,2255.1,134.8,72
0.027070,446.9,66.6,942.7,118.9,2261.7,293.1,456.5,933.9,2255.4,134.7,72.1
0.029070,454.7,68.8,945.7,119.7,2255.5,294.9,459.8,935.6,2255.8,134.6,72.2
0.031070,463.5,70.0,947.6,124.2,2244.2,297.2,464.2,937.9,2256.4,134.5,72.4
0.033070,472.7,70.4,946.7,131.4,2236.3,293.2,469.6,940.9,2257.2,134.3,72.6
0.035070,480.6,68.7,945.3,137.8,2236.7,290.9,475.7,944.4,2258.2,134.2,72.7
0.037070,487.8,65.8,945.7,144.6,2243.4,308.2,482.3,948.4,2259.5,134,72.9
0.039070,496.2,63.4,946.9,156.7,2255.3,355.8,489.3,952.8,2260.9,133.9,73.1
0.041070,505.0,61.9,947.0,173.2,2272.6,415.6,496.3,957.7,2262.6,133.7,73.3
0.043070,512.2,60.3,948.0,183.7,2289.9,443.9,503.2,962.8,2264.6,133.6,73.4
0.045070,517.3,58.7,953.9,182.7,2299.8,422.4,509.7,968.1,2266.8,133.4,73.5
0.047070,520.2,57.9,963.3,173.0,2299.2,372.6,515.6,973.5,2269.2,133.2,73.5
0.049070,521.6,57.5,971.4,158.6,2291.8,324.6,520.8,978.9,2271.9,133,73.5
0.051070,523.8,56.6,978.5,143.0,2283.4,286.5,525.1,984.2,2274.8,132.8,73.5
0.053070,526.4,55.9,987.5,128.7,2276.6,251.4,528.6,989.4,2277.9,132.6,73.4
0.055070,527.4,56.8,997.5,116.6,2273.1,218.6,531.2,994.2,2281.1,132.4,73.3
0.057070,526.8,58.6,1004.8,106.0,2272.7,194.7,533,998.6,2284.5,132.2,73.2
0.059070,527.7,60.3,1008.2,97.3,2274.2,184.0,533.9,1002.5,2287.9,132,73
0.061070,529.6,63.2,1010.2,89.3,2277.4,180.7,534.2,1005.9,2291.4,131.8,72.8
0.063070,529.9,68.2,1011.3,81.8,2282.0,178.5,534,1008.7,2294.9,131.5,72.7
0.065070,529.8,73.1,1011.5,75.6,2286.8,174.1,533.5,1010.8,2298.2,131.3,72.5
0.067070,532.3,76.0,1012.0,71.5,2292.1,171.2,532.8,1012.1,2301.5,131,72.4
0.069070,535.7,78.6,1013.0,70.1,2299.8,172.2,532.2,1012.8,2304.5,130.8,72.3
0.071070,536.4,81.7,1013.4,70.3,2309.5,174.8,531.8,1012.7,2307.3,130.5,72.3
0.073070,535.9,83.1,1012.6,70.7,2317.4,173.6,531.8,1011.9,2309.8,130.2,72.2
0.075070,537.0,82.5,1011.9,71.3,2321.2,166.5,532.4,1010.5,2312,129.9,72.2
0.077070,538.3,81.6,1011.7,73.2,2320.7,155.3,533.6,1008.5,2313.8,129.6,72.2
0.079070,537.6,79.9,1011.2,75.7,2317.8,144.5,535.5,1006,2315.3,129.3,72.1
0.081070,536.9,76.8,1010.1,77.5,2315.5,138.8,538,1003.1,2316.3,129,72.1
0.083070,538.4,74.5,1008.4,79.6,2315.0,140.8,541.3,999.9,2317,128.6,72
0.085070,540.4,74.9,1005.3,85.2,2315.5,152.2,545.1,996.5,2317.3,128.3,72
0.087070,542.0,76.6,1000.4,95.2,2316.2,170.0,549.4,993,2317.3,127.9,71.9
0.089070,545.1,76.5,996.1,107.3,2316.8,189.2,554,989.6,2316.9,127.5,71.8
0.091070,550.7,76.2,994.3,123.9,2316.8,214.3,558.7,986.3,2316.3,127.1,71.7
0.093070,557.7,78.8,992.3,155.2,2313.0,258.6,563.3,983.2,2315.5,126.6,71.5
0.095070,565.1,84.5,981.2,219.3,2298.3,333.6,567.6,980.5,2314.6,126.2,71.3
0.097070,572.9,90.3,957.1,308.0,2280.2,401.5,571.2,978.2,2313.6,125.7,71.1
0.099070,581.8,94.0,937.0,391.7,2288.3,442.2,574.1,976.4,2312.7,125.2,70.9
0.101070,587.5,95.8,944.6,432.7,2336.9,467.7,575.9,975,2311.8,124.7,70.8
0.103070,588.5,96.9,966.8,422.2,2389.9,465.7,576.5,974,2311.2,124.2,70.7
0.105070,587.8,96.5,979.8,395.4,2399.4,465.9,575.9,973.5,2310.8,123.7,70.5
0.107070,586.6,97.1,979.2,380.3,2354.6,481.9,573.8,973.4,2310.7,123.1,70.4
0.109070,582.1,103.5,970.1,376.9,2289.0,459.9,570.2,973.7,2311,122.6,70.2
0.111070,571.7,115.5,960.7,367.3,2256.2,412.1,565.2,974.1,2311.7,122,69.9
0.113070,558.6,125.8,955.7,337.2,2254.3,378.3,558.8,974.7,2313,121.5,69.6
0.115070,546.0,131.8,954.0,296.1,2266.3,361.6,551,975.3,2314.8,120.9,69.4
0.117070,530.7,133.6,958.3,256.7,2287.0,346.7,542.2,975.7,2317.1,120.3,69.1
0.119070,513.4,128.3,973.9,226.3,2314.2,306.1,532.3,975.9,2320,119.8,68.9
0.121070,502.8,121.1,996.4,203.9,2334.5,245.5,521.7,975.7,2323.4,119.2,68.7
0.123070,499.0,120.4,1016.7,183.3,2343.0,196.6,510.6,975.1,2327.3,118.6,68.5
0.125070,494.3,128.0,1029.1,162.9,2345.2,170.4,499.2,973.8,2331.8,118.1,68.3
0.127070,481.3,138.1,1029.1,146.2,2345.3,168.8,487.8,971.9,2336.7,117.6,68.1
0.129070,466.0,142.5,1019.9,136.2,2344.6,179.2,476.6,969.3,2342,117.1,67.9
0.131070,458.4,145.1,1008.0,132.4,2344.2,185.6,465.9,965.9,2347.6,116.6,67.6
0.133070,456.9,152.7,993.2,134.3,2346.5,192.4,455.8,961.8,2353.5,116.1,67.3
0.135070,458.7,172.9,971.6,148.9,2354.1,206.1,446.4,957,2359.6,115.7,67
0.137070,456.7,211.6,933.3,179.6,2368.5,228.8,438,951.6,2365.8,115.3,66.8
0.139070,442.0,253.6,882.8,195.3,2383.5,267.0,430.5,945.6,2372,114.9,66.5
0.141070,421.4,269.9,852.5,179.5,2393.4,312.0,424.1,939.2,2378.1,114.6,66.3
0.143070,412.8,248.1,851.4,157.9,2397.2,353.5,418.7,932.5,2384.1,114.2,66.1
0.145070,420.7,207.5,860.0,146.5,2402.7,378.4,414.2,925.8,2389.7,113.9,66
0.147070,429.2,174.1,865.9,144.8,2408.2,403.7,410.7,919,2395.1,113.6,65.9
0.149070,428.7,164.4,874.2,151.1,2406.9,454.2,407.9,912.6,2400,113.4,65.8
0.151070,423.6,178.6,893.7,162.9,2407.2,498.8,405.9,906.5,2404.4,113.1,65.8
0.153070,420.2,213.4,916.7,173.5,2412.8,439.7,404.4,901.1,2408.3,112.9,65.9
0.155070,420.7,258.7,930.7,182.3,2405.8,333.3,403.4,896.4,2411.5,112.8,66
0.157070,416.9,300.6,935.0,190.8,2404.0,262.4,402.8,892.6,2414.1,112.6,65.9
0.159070,400.1,337.4,933.1,201.3,2407.0,221.7,402.4,889.8,2415.9,112.4,65.6
0.161070,369.8,362.5,927.3,212.9,2406.7,205.8,402.2,888,2417,112.3,65.1
0.163070,340.2,386.2,922.5,238.5,2399.8,200.6,402.1,887.5,2417.4,112.2,64.4
