time,f1,b1,f2,b2,f3,b3,f1p,f2p,f3p,f0,intensity
0.025537,410.7,65.3,1014.9,173.2,2089.6,270.7,417.5,1008.8,2075.7,137.4,76.7
0.027537,415.5,57.6,992.0,190.4,2066.6,218.8,418.1,1013.2,2074.3,137.5,77.3
0.029537,419.3,53.2,981.6,220.1,2048.8,186.4,419,1020.7,2072,137.6,77.8
0.031537,421.9,49.9,990.9,257.4,2041.5,169.0,420.2,1031.2,2068.9,137.7,78.2
0.033537,423.8,45.9,1024.8,276.9,2045.3,162.8,421.6,1044.5,2065.3,137.7,78.5
0.035537,425.7,42.3,1074.0,254.2,2056.8,161.4,423.2,1060.8,2061.4,137.8,78.7
0.037537,427.2,40.4,1118.7,203.6,2067.9,156.3,424.8,1080,2057.5,137.8,78.7
0.039537,427.6,40.6,1145.2,156.5,2072.3,148.7,426.3,1101.9,2053.8,137.8,78.7
0.041537,427.6,41.8,1159.3,125.8,2072.1,145.8,427.7,1126.5,2050.6,137.8,78.6
0.043537,427.7,44.2,1170.4,110.3,2070.3,155.1,428.8,1153.5,2048.3,137.8,78.5
0.045537,427.5,47.4,1183.7,110.2,2067.9,179.6,429.5,1182.8,2047.2,137.7,78.3
0.047537,427.7,50.2,1205.7,119.7,2062.9,206.7,429.8,1214.2,2047.5,137.7,78.2
0.049537,428.8,51.6,1242.6,127.3,2056.7,208.5,429.6,1247.4,2049.5,137.6,78
0.051537,429.9,52.2,1292.1,118.5,2056.9,177.8,428.8,1282,2053.4,137.4,77.8
0.053537,429.8,52.1,1331.7,101.0,2062.6,144.7,427.5,1317.8,2059.3,137.3,77.7
0.055537,428.7,50.2,1359.6,89.8,2067.3,127.8,425.7,1354.2,2067.4,137.2,77.6
0.057537,427.1,47.9,1386.4,88.0,2071.9,120.7,423.3,1390.9,2077.7,137,77.6
0.059537,424.2,45.8,1419.1,91.9,2078.7,115.3,420.5,1427.5,2090.3,136.8,77.6
0.061537,419.9,41.8,1456.3,97.4,2089.6,114.1,417.3,1463.6,2104.9,136.6,77.6
0.063537,415.9,37.9,1489.3,102.6,2103.6,121.9,413.8,1498.7,2121.6,136.3,77.7
0.065537,410.8,35.3,1523.6,108.1,2120.1,144.7,410.1,1532.4,2140,136.1,77.7
0.067537,403.7,33.4,1562.0,107.5,2139.4,183.9,406.3,1564.4,2160,135.8,77.8
0.069537,397.1,30.6,1595.6,95.7,2163.5,224.2,402.5,1594.4,2181.2,135.5,77.9
0.071537,392.8,26.9,1620.2,79.8,2195.4,246.2,398.8,1622.1,2203.3,135.2,78.1
0.073537,389.6,23.8,1639.5,69.3,2228.5,247.0,395.3,1647.3,2225.9,134.9,78.3
0.075537,386.6,21.7,1659.4,64.3,2257.0,242.7,392,1670,2248.7,134.6,78.5
0.077537,385.5,20.5,1679.1,62.3,2280.4,242.5,389.2,1690.1,2271.1,134.3,78.7
0.079537,386.0,19.6,1698.7,61.6,2304.9,242.8,386.7,1707.7,2292.8,134,78.9
0.081537,385.9,19.2,1716.7,61.9,2330.4,231.4,384.6,1722.8,2313.5,133.6,79.1
0.083537,384.6,18.9,1732.9,61.9,2352.6,206.1,383,1735.6,2332.7,133.3,79.3
0.085537,384.2,18.3,1745.1,62.0,2368.7,180.4,381.8,1746.4,2350,132.9,79.5
0.087537,384.8,17.5,1753.4,65.2,2382.1,161.4,381,1755.4,2365.2,132.6,79.6
0.089537,384.3,16.8,1759.6,77.9,2393.8,149.4,380.5,1762.9,2378.1,132.2,79.8
0.091537,382.9,16.4,1765.0,102.6,2399.4,146.9,380.2,1769.3,2388.4,131.9,79.9
0.093537,382.6,15.9,1774.6,133.8,2398.7,155.0,380.2,1774.8,2395.9,131.5,80
0.095537,383.3,15.3,1792.4,156.7,2393.2,173.4,380.2,1779.9,2400.7,131.1,80
0.097537,382.7,14.8,1810.6,166.0,2385.4,193.4,380.3,1784.6,2402.6,130.8,80.1
0.099537,380.7,14.5,1819.3,168.2,2376.8,201.5,380.3,1789.3,2401.8,130.4,80.1
0.101537,379.8,14.4,1821.2,166.4,2368.8,191.6,380.2,1794,2398.2,130,80
0.103537,380.0,14.5,1823.9,160.1,2360.4,169.9,379.9,1799,2392.2,129.7,79.9
0.105537,379.3,15.1,1827.2,148.6,2354.6,148.2,379.3,1804.2,2383.9,129.3,79.8
0.107537,377.2,15.9,1825.4,132.7,2354.7,135.6,378.4,1809.6,2373.4,128.9,79.6
0.109537,375.7,16.7,1817.9,112.6,2360.5,133.5,377.3,1815,2361.2,128.6,79.4
0.111537,374.9,17.0,1810.5,92.9,2367.4,141.6,375.8,1820.2,2347.5,128.2,79.2
0.113537,372.8,17.2,1806.3,77.5,2369.1,159.0,374,1825.1,2332.7,127.8,78.9
0.115537,369.5,17.1,1804.6,68.8,2360.7,185.2,372,1829.4,2317,127.5,78.7
0.117537,366.8,16.4,1803.1,66.9,2336.9,225.0,369.8,1832.7,2300.8,127.1,78.5
0.119537,365.0,15.7,1799.8,70.8,2297.8,261.3,367.5,1834.8,2284.4,126.7,78.3
0.121537,362.4,15.6,1795.7,75.2,2259.4,272.3,365.1,1835.3,2268.1,126.3,78.2
0.123537,359.5,15.8,1794.8,78.4,2236.8,268.8,362.7,1833.9,2252.2,126,78.1
0.125537,358.4,16.2,1798.4,85.0,2223.7,262.3,360.3,1830.6,2236.9,125.6,78.1
0.127537,357.9,16.5,1805.7,103.4,2211.3,250.2,358.2,1825,2222.4,125.2,78.1
0.129537,356.4,17.0,1812.4,133.0,2200.0,237.4,356.2,1817,2209,124.9,78.1
0.131537,355.4,17.4,1815.7,161.6,2191.0,230.5,354.5,1806.8,2196.6,124.5,78.2
0.133537,356.2,17.7,1816.4,176.5,2183.9,236.5,353.2,1794.3,2185.5,124.1,78.2
0.135537,357.0,17.7,1815.3,181.9,2173.7,259.1,352.1,1779.8,2175.6,123.8,78.3
0.137537,355.8,17.9,1808.6,188.1,2158.0,284.8,351.4,1763.5,2167,123.4,78.3
0.139537,354.4,18.3,1794.4,193.7,2148.2,289.9,351.1,1745.7,2159.6,123.1,78.3
0.141537,354.8,19.2,1771.0,194.7,2147.9,278.8,351,1726.9,2153.4,122.7,78.3
0.143537,355.2,20.5,1737.6,188.3,2151.7,263.5,351.3,1707.6,2148.2,122.4,78.2
0.145537,352.8,22.2,1701.0,176.3,2154.7,257.3,351.7,1688.3,2144.1,122.1,78
0.147537,349.9,24.1,1676.9,168.9,2154.9,257.2,352.3,1669.5,2140.8,121.8,77.8
0.149537,350.0,26.9,1661.0,169.5,2154.1,249.6,353,1651.8,2138.3,121.5,77.5
0.151537,352.6,30.8,1643.7,180.1,2150.9,236.5,353.7,1635.8,2136.4,121.2,77.1
0.153537,353.6,34.6,1619.6,208.9,2142.2,230.4,354.4,1622,2135,120.9,76.7
0.155537,352.2,37.4,1592.1,260.4,2128.4,234.1,355.1,1610.7,2134.1,120.6,76.3
0.157537,352.8,39.4,1573.7,312.8,2119.0,241.7,355.5,1602.4,2133.5,120.3,75.8
0.159537,355.5,41.7,1563.0,355.4,2119.9,259.6,355.8,1597.3,2133.1,120.1,75.2
0.161537,356.0,43.9,1550.5,386.8,2132.1,301.8,355.9,1595.6,2133,119.8,74.6
