time,f1,b1,f2,b2,f3,b3,f1p,f2p,f3p,f0,intensity
0.025497,303.8,81.3,741.9,281.0,2159.6,104.8,344.5,768.5,2203,140.9,67.6
0.027497,308.1,72.2,734.1,243.6,2163.5,91.3,344.6,768.7,2202.9,140.3,68.7
0.029497,310.4,65.2,726.2,223.8,2169.7,99.6,344.7,769.1,2202.6,139.8,69.7
0.031497,313.6,61.8,721.4,218.4,2175.9,115.7,344.9,769.5,2202.2,139.2,70.5
0.033497,319.6,60.0,723.5,228.9,2179.6,123.9,345.2,770,2201.7,138.6,71.1
0.035497,328.1,56.7,731.5,253.8,2182.2,124.7,345.5,770.7,2201.1,138,71.6
0.037497,337.5,52.3,743.0,291.5,2186.4,134.1,345.9,771.5,2200.4,137.4,72
0.039497,346.8,48.6,755.6,337.1,2193.5,163.4,346.3,772.3,2199.7,136.8,72.3
0.041497,353.3,46.3,763.3,380.5,2203.5,207.2,346.7,773.3,2198.8,136.3,72.6
0.043497,356.2,45.4,759.8,415.9,2213.7,247.0,347.3,774.3,2197.9,135.7,72.9
0.045497,358.0,45.3,749.8,443.8,2214.7,258.8,347.8,775.4,2196.9,135.2,73
0.047497,361.1,45.4,747.4,473.6,2201.2,221.3,348.4,776.5,2195.9,134.7,73.1
0.049497,365.0,45.7,763.7,525.3,2189.2,161.5,349.1,777.7,2194.8,134.2,73.1
0.051497,368.0,45.0,792.9,595.9,2188.6,126.9,349.8,778.9,2193.7,133.7,73.1
0.053497,370.3,43.2,823.3,669.5,2195.2,122.7,350.5,780,2192.6,133.3,73.1
0.055497,372.8,41.2,853.4,738.1,2203.7,134.3,351.2,781.2,2191.5,132.9,73.1
0.057497,373.4,40.1,875.6,789.6,2209.6,139.1,352,782.4,2190.4,132.5,73.1
0.059497,371.6,39.9,882.4,822.1,2209.0,122.7,352.8,783.5,2189.4,132.1,73.1
0.061497,369.5,40.3,860.7,824.7,2201.3,98.4,353.6,784.6,2188.3,131.8,73.2
0.063497,367.9,41.4,813.7,784.4,2191.2,80.9,354.5,785.7,2187.4,131.5,73.3
0.065497,365.9,42.2,775.2,725.9,2184.9,70.7,355.4,786.7,2186.4,131.2,73.4
0.067497,364.2,41.5,760.8,690.1,2184.3,64.7,356.2,787.6,2185.6,131,73.5
0.069497,365.0,39.8,777.4,692.3,2186.8,61.8,357.1,788.4,2184.8,130.7,73.5
0.071497,367.2,38.4,824.3,718.0,2188.7,61.0,358,789.2,2184.2,130.5,73.5
0.073497,368.1,38.1,874.9,736.3,2189.3,60.4,358.9,789.8,2183.6,130.4,73.5
0.075497,367.1,38.3,892.9,746.9,2190.6,60.4,359.8,790.4,2183.2,130.2,73.5
0.077497,366.1,39.1,861.3,759.5,2192.3,64.1,360.6,790.9,2182.9,130,73.4
0.079497,365.6,40.8,795.5,744.0,2192.0,72.1,361.5,791.2,2182.7,129.9,73.3
0.081497,364.5,42.7,744.8,716.3,2190.1,79.7,362.3,791.5,2182.7,129.8,73.3
0.083497,363.9,42.9,731.1,744.7,2189.6,84.7,363.2,791.8,2182.8,129.7,73.2
0.085497,365.2,41.7,752.0,834.6,2191.2,93.1,364,791.9,2183.1,129.6,73.2
0.087497,366.7,40.5,779.9,917.3,2193.7,104.5,364.8,792,2183.6,129.5,73.1
0.089497,366.7,39.9,785.4,963.3,2196.9,105.7,365.6,792,2184.2,129.4,73.1
0.091497,366.2,39.2,772.1,967.1,2200.6,94.8,366.3,792,2185,129.4,73.1
0.093497,366.9,38.4,770.7,940.0,2203.3,81.7,367,792,2185.9,129.3,73
0.095497,368.1,38.4,800.8,924.2,2205.3,73.1,367.7,792,2187,129.2,73
0.097497,368.1,38.8,833.8,926.1,2209.5,70.4,368.4,792,2188.3,129.2,72.9
0.099497,367.5,38.9,831.1,951.3,2215.5,75.3,369,792.1,2189.8,129.1,72.8
0.101497,367.4,39.2,775.1,972.4,2218.3,92.9,369.6,792.2,2191.4,129.1,72.8
0.103497,367.0,40.0,693.4,890.7,2213.4,128.1,370.1,792.5,2193.2,129,72.7
0.105497,365.6,40.7,641.3,785.2,2202.1,174.2,370.6,792.9,2195.1,129,72.7
0.107497,365.6,40.1,609.5,765.9,2196.9,219.7,371.1,793.5,2197.2,128.9,72.6
0.109497,368.0,38.4,585.7,895.2,2220.8,269.4,371.5,794.3,2199.4,128.9,72.6
0.111497,370.8,36.0,530.2,1337.2,2237.4,1746.7,371.9,795.3,2201.8,128.8,72.6
0.113497,372.1,33.8,1383.6,1807.8,2294.7,242.6,372.2,796.6,2204.3,128.8,72.5
0.115497,372.6,32.7,1321.2,1463.0,2293.7,245.4,372.5,798.2,2206.8,128.7,72.5
0.117497,373.5,33.1,1235.6,1702.7,2273.4,257.7,372.8,800.2,2209.5,128.7,72.5
0.119497,373.4,34.6,671.6,2487.7,2245.0,247.9,373,802.6,2212.3,128.6,72.4
0.121497,372.0,35.8,542.9,1390.3,2228.7,213.2,373.2,805.4,2215.1,128.6,72.4
0.123497,370.8,35.9,552.9,1296.7,2196.8,2506.7,373.3,808.6,2218,128.5,72.3
0.125497,370.4,36.1,563.6,1354.9,2096.5,2266.9,373.4,812.4,2221,128.5,72.3
0.127497,369.3,37.1,566.3,1512.5,1996.8,2427.1,373.4,816.8,2224,128.4,72.2
0.129497,367.9,37.6,654.1,2308.4,2248.5,125.8,373.4,821.7,2227,128.4,72.2
0.131497,367.8,36.9,1084.1,1594.5,2250.6,125.4,373.4,827.2,2230,128.3,72.1
0.133497,368.8,36.5,1093.2,1406.5,2246.8,152.2,373.4,833.3,2233,128.3,72.1
0.135497,368.6,37.2,1010.6,1505.0,2228.1,231.2,373.3,840.2,2236,128.2,72
0.137497,366.9,37.8,715.7,1304.4,2176.2,363.2,373.2,847.7,2239,128.2,72
0.139497,366.1,37.0,687.6,1040.5,2117.7,427.7,373,856,2241.9,128.1,72
0.141497,366.7,35.7,701.6,1048.1,2124.9,407.0,372.8,865,2244.8,128.1,72
0.143497,367.1,35.1,754.8,1279.7,2164.6,354.0,372.6,874.8,2247.6,128,72
0.145497,367.5,34.7,983.8,1382.9,2203.2,296.6,372.4,885.4,2250.4,128,72
0.147497,368.9,34.6,1068.8,1261.4,2233.9,250.9,372.1,896.8,2253,127.9,72
0.149497,370.4,35.5,1078.7,1269.3,2254.4,217.7,371.9,909,2255.6,127.9,72
0.151497,370.3,36.4,1061.7,1348.1,2268.2,194.8,371.6,922.1,2258,127.8,72
0.153497,369.4,36.2,1028.6,1419.5,2282.1,181.2,371.3,935.9,2260.4,127.7,71.9
0.155497,369.3,35.2,971.8,1420.7,2297.9,178.1,370.9,950.6,2262.6,127.7,71.9
0.157497,369.5,34.6,901.5,1334.5,2311.6,188.9,370.6,966.1,2264.7,127.6,71.8
0.159497,368.7,34.5,865.4,1262.4,2312.9,217.3,370.3,982.4,2266.7,127.5,71.8
0.161497,368.0,34.2,895.7,1283.7,2292.0,254.4,369.9,999.5,2268.6,127.5,71.8
0.163497,368.6,33.5,986.2,1303.6,2258.6,276.1,369.6,1017.3,2270.3,127.4,71.8
0.165497,369.2,33.4,1047.1,1296.3,2235.0,280.3,369.2,1035.9,2272,127.3,71.7
0.167497,368.2,33.9,1055.0,1319.7,2235.0,276.7,368.8,1055.2,2273.4,127.3,71.7
0.169497,367.1,34.1,1051.3,1356.0,2260.1,269.9,368.4,1075.2,2274.8,127.2,71.6
0.171497,367.7,33.8,1088.4,1380.6,2299.6,271.3,368.1,1095.8,2276.1,127.1,71.5
0.173497,369.4,33.6,1198.4,1325.5,2340.4,290.5,367.7,1117,2277.2,127,71.5
0.175497,370.0,33.1,1313.2,1188.9,2371.4,323.9,367.3,1138.8,2278.3,127,71.4
0.177497,369.7,31.5,1390.7,1069.2,2385.5,358.2,367,1161.1,2279.2,126.9,71.3
0.179497,370.2,29.2,1429.5,996.9,2373.5,380.3,366.6,1183.9,2280.1,126.8,71.2
0.181497,370.5,27.5,1430.0,1013.3,2330.0,385.6,366.2,1207,2280.8,126.7,71.2
0.183497,369.5,27.2,1399.4,1171.9,2268.7,370.7,365.9,1230.5,2281.5,126.7,71.1
0.185497,367.9,28.9,1327.4,1524.7,2214.1,340.7,365.5,1254.3,2282.2,126.6,71
0.187497,366.5,32.9,1059.7,2417.3,2185.8,317.4,365.2,1278.3,2282.8,126.5,71
0.189497,363.9,38.6,415.7,1073.3,2181.1,320.4,364.8,1302.5,2283.4,126.4,70.9
0.191497,360.2,43.2,480.4,813.0,2182.1,352.0,364.5,1326.8,2283.9,126.4,70.8
0.193497,358.9,44.3,475.2,803.0,2188.1,425.4,364.1,1351,2284.4,126.3,70.6
0.195497,361.5,41.5,415.6,999.2,2251.2,753.4,363.8,1375.2,2285,126.2,70.5
0.197497,364.3,36.7,2046.0,1338.1,2365.9,257.6,363.4,1399.3,2285.6,126.1,70.3
0.199497,364.9,33.3,1652.4,1581.8,2358.7,154.0,363.1,1423.2,2286.1,126.1,70.1
0.201497,364.6,32.1,1487.2,1507.7,2345.8,113.8,362.8,1446.8,2286.8,126,69.9
0.203497,365.1,33.0,1536.8,1744.1,2324.3,114.6,362.5,1470.1,2287.5,125.9,69.7
0.205497,365.7,35.2,1910.2,1930.0,2291.7,142.0,362.1,1492.9,2288.3,125.8,69.6
0.207497,365.3,37.0,2188.7,1689.6,2256.1,171.1,361.8,1515.3,2289.1,125.8,69.6
0.209497,365.5,37.1,2228.9,189.6,2347.4,1665.6,361.5,1537.1,2290.1,125.7,69.5
0.211497,366.4,36.8,2211.1,216.2,2533.1,1780.3,361.1,1558.3,2291.1,125.6,69.4
0.213497,366.1,37.6,2200.6,275.4,2253.1,5075.4,360.8,1578.8,2292.3,125.5,69.3
0.215497,364.1,37.7,1885.2,2379.6,2218.6,373.3,360.4,1598.6,2293.6,125.4,69.2
0.217497,362.9,34.7,1559.1,1211.3,2286.1,376.1,360.1,1617.6,2295.1,125.3,69
0.219497,363.9,30.7,1454.4,749.3,2308.4,288.1,359.7,1635.7,2296.7,125.2,68.8
0.221497,365.6,28.2,1419.7,566.3,2296.5,223.4,359.3,1652.8,2298.4,125.1,68.7
0.223497,366.2,27.2,1412.6,516.3,2284.2,187.8,358.9,1669.1,2300.3,125,68.5
0.225497,366.3,28.0,1430.3,554.9,2287.4,180.5,358.5,1684.3,2302.4,124.9,68.4
0.227497,366.4,31.5,1477.4,686.9,2305.8,202.6,358.1,1698.5,2304.6,124.8,68.3
0.229497,364.5,37.9,1588.5,924.0,2338.3,243.0,357.6,1711.6,2307,124.7,68.3
0.231497,360.2,45.0,1787.5,1006.6,2370.1,266.5,357.2,1723.6,2309.5,124.6,68.3
0.233497,356.7,49.8,1869.4,1043.1,2370.0,275.7,356.7,1734.4,2312.2,124.5,68.2
0.235497,356.1,51.9,1854.3,1342.9,2341.2,272.5,356.2,1744.2,2315,124.4,68.2
0.237497,357.3,52.5,1571.2,1611.6,2315.7,258.1,355.6,1752.7,2318,124.2,68.1
0.239497,358.1,51.2,1456.4,1208.6,2302.1,256.5,355.1,1760.1,2321.2,124.1,68.1
0.241497,358.3,47.5,1493.2,967.0,2293.0,264.0,354.5,1766.2,2324.4,124,68
0.243497,358.0,42.9,1543.3,852.6,2283.2,271.3,353.9,1771.3,2327.8,123.8,67.9
0.245497,356.1,39.8,1594.8,882.0,2267.1,284.0,353.3,1775.1,2331.2,123.7,67.8
0.247497,352.8,39.2,1671.8,1061.1,2242.2,313.1,352.6,1777.7,2334.8,123.6,67.6
0.249497,350.2,39.4,1794.7,1226.8,2218.6,370.4,351.9,1779.3,2338.4,123.4,67.5
0.251497,349.0,39.2,1867.4,1044.8,2236.5,483.6,351.2,1779.7,2342.1,123.3,67.4
0.253497,347.8,38.7,1826.8,759.7,2322.6,533.2,350.4,1779,2345.9,123.2,67.2
0.255497,345.4,38.9,1819.8,628.5,2375.6,492.8,349.6,1777.2,2349.6,123.1,67.1
0.257497,343.6,40.2,1863.2,554.9,2400.1,458.1,348.8,1774.4,2353.4,122.9,66.9
0.259497,344.1,42.9,1912.1,485.5,2419.4,426.5,347.9,1770.7,2357.1,122.8,66.7
0.261497,345.5,46.0,1943.2,453.0,2431.0,404.4,347.1,1766,2360.8,122.7,66.5
0.263497,345.5,48.1,1959.9,494.9,2430.5,414.0,346.1,1760.4,2364.5,122.6,66.3
0.265497,344.5,49.5,1949.4,641.9,2416.3,443.1,345.2,1753.9,2368,122.5,66.2
0.267497,343.1,51.2,1826.3,837.7,2418.6,421.4,344.2,1746.7,2371.5,122.4,66.1
0.269497,340.9,52.9,1662.6,749.9,2472.6,352.3,343.2,1738.7,2374.8,122.3,66
0.271497,336.1,54.7,1602.2,590.8,2512.4,273.5,342.2,1730.1,2378,122.2,66
0.273497,330.2,56.4,1601.3,527.7,2506.8,234.7,341.1,1720.8,2380.9,122.1,66
0.275497,326.1,56.2,1592.4,521.4,2479.7,228.4,340,1711,2383.7,122,65.9
0.277497,324.9,54.4,1563.0,524.1,2438.0,230.7,338.8,1700.8,2386.3,122,65.9
0.279497,324.9,53.7,1534.1,514.6,2391.0,209.6,337.7,1690.1,2388.6,121.9,65.8
0.281497,325.9,55.4,1518.2,521.3,2354.6,176.2,336.5,1679.1,2390.7,121.8,65.8
0.283497,328.0,58.9,1523.7,581.1,2327.6,163.3,335.3,1667.8,2392.4,121.7,65.8
0.285497,329.6,62.9,1577.4,721.6,2299.3,192.1,334.1,1656.2,2393.9,121.7,65.8
0.287497,329.0,64.7,1690.8,889.9,2256.0,265.9,332.8,1644.6,2395,121.6,65.7
0.289497,326.0,64.5,1769.1,976.3,2196.7,329.7,331.6,1632.8,2395.8,121.6,65.7
0.291497,321.8,63.5,1715.3,939.6,2163.0,336.6,330.3,1621,2396.3,121.5,65.5
0.293497,318.3,59.8,1628.2,799.8,2170.1,347.9,329,1609.3,2396.4,121.4,65.4
0.295497,316.6,54.3,1585.6,650.4,2219.3,406.3,327.7,1597.6,2396.1,121.4,65.3
0.297497,317.1,51.7,1578.4,513.0,2331.1,471.5,326.3,1586.1,2395.4,121.3,65.2
0.299497,320.0,52.7,1582.7,428.0,2441.8,443.9,325,1574.9,2394.4,121.2,65.2
0.301497,323.1,55.1,1597.5,444.7,2456.3,429.2,323.6,1563.8,2392.9,121.1,65.2
0.303497,324.0,56.1,1597.8,570.3,2384.0,458.4,322.3,1553.1,2391.1,121.1,65.3
0.305497,322.6,55.3,1542.3,741.1,2282.8,403.5,320.9,1542.7,2388.8,121,65.3
0.307497,321.4,54.4,1459.7,827.2,2230.2,310.2,319.6,1532.7,2386.2,120.9,65.3
0.309497,321.8,53.0,1406.9,872.4,2208.2,272.0,318.2,1523.2,2383.1,120.8,65.2
0.311497,322.6,51.0,1401.0,1008.6,2199.3,313.6,316.9,1514.1,2379.7,120.7,65.2
0.313497,322.3,50.4,1526.9,1351.3,2194.3,544.7,315.5,1505.4,2375.9,120.6,65.2
0.315497,321.1,52.2,1808.8,682.2,2624.7,501.2,314.2,1497.3,2371.7,120.5,65.2
0.317497,319.4,54.4,1705.6,441.4,2646.5,266.2,312.9,1489.7,2367.2,120.3,65.3
0.319497,317.1,55.2,1657.6,368.6,2652.4,200.5,311.6,1482.7,2362.3,120.2,65.5
0.321497,314.2,54.8,1651.6,397.7,2633.8,215.8,310.3,1476.2,2357.1,120.1,65.5
0.323497,312.2,55.2,1682.3,494.1,2593.7,276.2,309,1470.2,2351.5,119.9,65.5
0.325497,312.2,56.3,1748.4,601.7,2542.0,345.2,307.7,1464.9,2345.7,119.7,65.5
0.327497,314.5,55.9,1830.9,619.4,2498.7,392.4,306.5,1460,2339.7,119.6,65.3
0.329497,316.5,53.7,1876.5,529.4,2483.5,415.5,305.2,1455.8,2333.4,119.4,65.2
0.331497,314.9,55.1,1892.7,442.7,2510.5,440.1,304,1452,2326.9,119.2,65
0.333497,310.1,60.3,1915.3,403.1,2575.5,442.7,302.9,1448.8,2320.2,119,64.8
0.335497,306.5,61.1,1958.0,407.0,2631.5,434.8,301.7,1446.1,2313.4,118.8,64.6
0.337497,306.7,57.6,735.4,1857.4,2019.9,415.3,300.6,1443.9,2306.4,118.6,64.5
0.339497,307.3,54.8,883.2,1217.9,2074.3,398.8,299.5,1442.2,2299.3,118.4,64.3
0.341497,307.1,53.0,915.5,906.1,2106.7,384.0,298.5,1440.9,2292.2,118.2,64.1
0.343497,307.0,50.5,931.1,750.5,2124.6,403.2,297.4,1440,2285.1,118,63.9
0.345497,306.7,48.2,940.8,709.0,2141.0,499.6,296.5,1439.5,2278,117.8,63.7
0.347497,305.0,49.4,946.6,759.9,2142.8,750.2,295.5,1439.3,2270.9,117.5,63.6
0.349497,303.1,54.3,955.0,861.8,2085.3,1008.9,294.6,1439.5,2263.9,117.3,63.5
0.351497,302.7,59.3,966.8,1004.2,2058.8,1090.2,293.7,1439.9,2257,117,63.4
0.353497,304.8,61.3,985.7,1363.5,2008.0,1094.5,292.9,1440.6,2250.2,116.8,63.3
0.355497,307.8,60.9,600.5,3155.2,1813.6,925.3,292.1,1441.5,2243.7,116.5,63.1
0.357497,309.3,60.6,1741.4,604.7,2501.2,350.7,291.4,1442.6,2237.3,116.3,62.8
0.359497,309.2,61.6,1716.9,471.1,2471.8,309.4,290.7,1443.8,2231.2,116,62.5
0.361497,308.4,63.1,1697.2,467.0,2436.2,250.9,290,1445,2225.4,115.8,62.2
0.363497,306.3,64.4,1679.9,579.7,2409.3,217.8,289.4,1446.4,2219.8,115.5,61.9
0.365497,301.8,66.7,1656.2,761.4,2390.8,224.4,288.8,1447.8,2214.6,115.2,61.6
0.367497,295.4,69.9,1640.3,836.9,2381.0,256.7,288.3,1449.2,2209.8,115,61.3
0.369497,287.6,70.7,1663.6,738.8,2388.6,310.6,287.8,1450.5,2205.3,114.7,60.9
0.371497,280.0,66.5,1691.6,588.7,2415.9,389.7,287.4,1451.8,2201.2,114.5,60.5
0.373497,274.1,62.1,1708.1,492.3,2459.4,495.4,287,1453,2197.6,114.2,60.1
0.375497,268.5,60.8,1717.8,470.4,2508.0,597.7,286.7,1454.1,2194.4,114,59.7
0.377497,263.4,60.2,1722.1,519.6,1858.9,2779.3,286.4,1455.1,2191.7,113.7,59.2
0.379497,260.3,58.4,1729.3,719.2,1804.0,1389.8,286.2,1455.9,2189.5,113.5,58.6
0.381497,260.9,56.9,1494.6,912.2,1969.3,722.7,286,1456.5,2187.7,113.3,58.1
0.383497,261.7,59.2,1372.4,813.8,2031.9,541.9,285.9,1457,2186.4,113.1,57.6
0.385497,261.0,68.9,1293.1,708.5,2058.9,422.0,285.8,1457.3,2185.7,112.9,57.1
0.387497,261.3,90.1,1236.7,635.9,2059.7,363.4,285.8,1457.4,2185.4,112.7,56.7
