time,f1,b1,f2,b2,f3,b3,f1p,f2p,f3p,f0,intensity
0.025254,308.4,28.7,1895.0,71.4,2397.4,102.6,341.5,1908.9,2380.9,112.9,74.1
0.027254,319.8,28.9,1903.0,70.6,2379.7,105.4,341,1909.7,2380.3,113,74.4
0.029254,330.2,25.9,1904.4,77.8,2358.0,110.5,340.2,1911,2379.4,113,74.7
0.031254,337.6,20.7,1905.4,89.2,2345.3,112.6,339,1912.8,2378.3,113.1,75
0.033254,342.9,15.8,1911.9,101.0,2347.3,117.2,337.7,1915.1,2377.1,113.1,75.2
0.035254,346.6,12.3,1924.6,106.9,2365.1,126.0,336.1,1917.9,2375.9,113.2,75.3
0.037254,348.4,10.4,1934.3,101.2,2391.8,127.8,334.5,1921.2,2374.9,113.2,75.4
0.039254,348.1,9.8,1934.0,92.5,2411.6,119.1,332.9,1924.9,2374.1,113.2,75.3
0.041254,346.2,10.1,1931.9,93.5,2418.7,111.9,331.3,1928.9,2373.8,113.2,75.1
0.043254,343.6,10.7,1937.3,110.1,2413.9,110.4,329.9,1933.3,2374.1,113.2,75
0.045254,341.4,11.4,1952.4,139.1,2399.7,112.5,328.7,1938.1,2375,113.2,74.8
0.047254,340.6,12.1,1965.4,161.3,2382.2,113.8,327.7,1943,2376.7,113.2,74.7
0.049254,340.4,12.2,1964.8,166.4,2368.0,115.0,326.9,1948.2,2379.2,113.2,74.5
0.051254,337.8,11.8,1957.9,171.6,2359.5,125.3,326.4,1953.5,2382.5,113.1,74.3
0.053254,331.2,11.8,1951.0,190.8,2353.7,149.8,326.2,1958.8,2386.6,113.1,74.1
0.055254,322.0,12.4,1942.4,217.5,2346.1,177.7,326.3,1964.1,2391.3,113.1,73.9
0.057254,313.3,13.8,1938.3,226.6,2346.7,187.8,326.5,1969.3,2396.7,113,73.7
0.059254,308.0,16.7,1955.5,209.1,2374.3,181.9,327,1974.4,2402.5,112.9,73.7
0.061254,307.1,20.8,1982.5,173.2,2417.2,152.1,327.5,1979.2,2408.6,112.9,73.8
0.063254,309.0,22.5,1991.7,134.7,2443.5,110.5,328.1,1983.6,2414.8,112.8,74.2
0.065254,312.5,20.4,1987.1,106.8,2454.0,85.0,328.7,1987.8,2421,112.8,74.7
0.067254,317.9,17.7,1984.0,89.3,2458.4,73.5,329.2,1991.4,2426.9,112.7,75.2
0.069254,324.4,15.4,1986.4,80.8,2459.9,73.5,329.6,1994.7,2432.4,112.6,75.6
0.071254,330.7,12.8,1993.2,83.9,2458.7,88.9,329.8,1997.4,2437.4,112.6,75.7
0.073254,335.2,10.4,2000.9,98.2,2451.2,118.1,329.8,1999.7,2441.8,112.5,75.7
0.075254,336.5,9.0,2006.3,115.3,2437.9,137.2,329.6,2001.4,2445.4,112.5,75.6
0.077254,335.1,8.5,2010.5,127.0,2429.7,140.3,329.1,2002.7,2448.1,112.5,75.4
0.079254,333.7,8.8,2016.4,127.2,2428.8,144.8,328.5,2003.5,2450.1,112.4,75.3
0.081254,333.4,9.9,2021.3,114.9,2433.4,152.3,327.6,2003.9,2451.3,112.4,75.2
0.083254,334.0,11.7,2020.1,101.9,2442.7,153.2,326.7,2004,2451.8,112.5,75.1
0.085254,334.8,13.4,2013.9,98.1,2454.0,142.4,325.6,2003.7,2451.6,112.5,75.1
0.087254,334.4,14.2,2006.1,104.1,2460.3,125.2,324.6,2003.2,2451,112.5,75
0.089254,333.0,14.1,2000.0,117.4,2456.9,113.7,323.6,2002.6,2449.9,112.6,75
0.091254,332.0,13.8,1996.9,130.6,2444.9,114.2,322.7,2001.8,2448.6,112.6,74.9
0.093254,332.0,13.5,1996.0,134.7,2433.4,121.8,322,2001.1,2447.3,112.7,74.9
0.095254,331.1,13.3,1996.8,132.7,2434.9,124.6,321.5,2000.4,2446,112.8,75
0.097254,325.8,13.2,1997.2,137.5,2445.5,119.7,321.4,1999.8,2444.9,112.9,75.2
0.099254,316.3,13.4,1991.4,153.3,2451.7,112.1,321.5,1999.3,2444.1,113,75.4
0.101254,306.2,13.6,1975.3,167.7,2449.3,103.3,321.9,1999.1,2443.7,113.2,75.5
0.103254,300.0,14.1,1962.9,169.7,2443.7,97.5,322.7,1999.1,2443.8,113.3,75.6
0.105254,300.5,15.6,1970.8,174.4,2441.5,102.6,323.8,1999.4,2444.4,113.5,75.6
0.107254,307.8,17.5,1994.2,191.0,2447.3,120.3,325.1,1999.9,2445.5,113.6,75.6
0.109254,318.1,17.5,2015.7,205.5,2460.8,135.3,326.7,2000.6,2447,113.8,75.6
0.111254,326.3,15.4,2024.2,207.7,2473.6,131.4,328.3,2001.6,2448.9,114,75.7
0.113254,332.1,13.3,2027.2,199.9,2475.9,114.9,330.1,2002.9,2451.2,114.1,75.8
0.115254,337.1,11.9,2031.2,184.7,2463.5,94.9,331.9,2004.3,2453.7,114.3,75.8
0.117254,341.6,11.2,2029.3,165.1,2444.0,74.3,333.6,2005.9,2456.4,114.5,75.7
0.119254,344.8,11.4,2022.0,147.3,2431.4,58.2,335.2,2007.6,2459,114.7,75.6
0.121254,345.8,12.0,2016.9,139.5,2430.2,49.6,336.6,2009.4,2461.6,114.8,75.3
0.123254,344.6,12.4,2015.4,145.4,2438.1,46.5,337.7,2011.2,2464,115,75
0.125254,342.7,12.5,2013.3,165.1,2451.8,46.4,338.6,2013.1,2466.2,115.2,74.6
0.127254,341.4,13.2,2006.1,190.7,2466.8,47.5,339.2,2014.9,2468.1,115.3,74.3
0.129254,341.4,14.4,1999.2,205.5,2478.7,49.9,339.5,2016.6,2469.7,115.5,73.9
0.131254,341.8,15.4,2000.1,208.1,2487.5,54.1,339.5,2018.2,2470.9,115.6,73.5
0.133254,341.7,15.6,2005.1,200.1,2494.1,62.4,339.2,2019.7,2471.7,115.7,73.1
0.135254,341.5,15.4,2008.0,170.0,2497.0,80.2,338.8,2021.1,2472.2,115.8,72.8
0.137254,341.8,15.5,2007.9,130.2,2490.3,111.9,338.2,2022.3,2472.5,115.9,72.5
0.139254,341.2,15.2,2006.7,105.4,2470.2,148.0,337.5,2023.3,2472.5,116,72.2
0.141254,338.0,14.3,2007.0,93.1,2455.7,156.5,336.7,2024.2,2472.4,116.1,71.9
0.143254,333.2,13.7,2010.8,88.2,2461.0,127.4,336,2024.9,2472.2,116.2,71.5
0.145254,329.2,13.9,2019.3,93.4,2469.5,89.7,335.4,2025.5,2471.9,116.2,71
0.147254,327.9,15.4,2034.7,108.6,2472.6,65.1,334.9,2025.9,2471.7,116.3,70.5
0.149254,329.3,17.9,2055.1,126.7,2470.9,55.2,334.6,2026.1,2471.5,116.3,69.8
0.151254,331.8,20.6,2070.9,139.1,2465.2,58.8,334.5,2026.2,2471.5,116.3,69.3
