time,f1,b1,f2,b2,f3,b3,f1p,f2p,f3p,f0,intensity
0.025193,465.6,44.2,998.4,119.3,2261.5,67.7,460.5,1010.6,2301.6,129,72.1
0.027193,462.6,48.9,1002.2,122.6,2283.4,83.2,458.8,1009.5,2302.8,129.2,72
0.029193,457.8,56.4,1005.4,133.5,2305.5,90.5,456,1007.8,2304.8,129.4,71.9
0.031193,452.1,66.0,1008.1,157.1,2323.0,95.0,452.5,1005.6,2307.3,129.6,71.7
0.033193,447.5,72.9,1008.1,187.7,2333.0,107.5,448.2,1002.8,2310.2,129.8,71.7
0.035193,443.8,76.7,1005.3,213.3,2335.2,134.2,443.7,999.8,2313.3,130,71.6
0.037193,440.0,78.7,1001.2,226.3,2328.0,184.2,439,996.5,2316.2,130.2,71.5
0.039193,436.4,77.7,997.1,221.9,2316.3,250.8,434.6,993.2,2318.7,130.4,71.5
0.041193,433.3,75.8,994.2,211.3,2320.2,291.9,430.6,989.9,2320.6,130.7,71.4
0.043193,429.1,76.3,991.3,205.3,2338.9,270.4,427.3,986.7,2321.6,130.9,71.3
0.045193,422.5,79.5,986.0,209.6,2340.2,215.4,424.9,983.8,2321.7,131.2,71.2
0.047193,415.4,81.7,980.4,217.0,2322.9,156.2,423.6,981.1,2320.7,131.4,71
0.049193,411.0,81.9,978.5,212.3,2305.3,101.4,423.4,978.7,2318.6,131.6,70.8
0.051193,410.0,84.1,978.0,192.4,2295.2,59.8,424.3,976.6,2315.5,131.9,70.6
0.053193,412.9,91.4,974.0,164.5,2291.4,38.1,426.2,974.6,2311.4,132.1,70.5
0.055193,419.4,102.2,969.4,135.7,2290.2,30.0,428.9,972.7,2306.6,132.3,70.4
0.057193,430.8,116.7,967.6,110.0,2289.7,31.0,432.4,970.8,2301.2,132.5,70.5
0.059193,445.0,126.6,966.7,91.5,2289.5,42.4,436.3,968.6,2295.7,132.6,70.7
0.061193,455.9,121.8,964.5,76.9,2289.2,64.2,440.4,966.1,2290.2,132.8,71
0.063193,462.1,108.9,960.7,63.4,2288.6,95.9,444.3,963.1,2285.1,132.9,71.3
0.065193,464.5,97.8,955.3,52.3,2289.3,126.9,447.9,959.3,2280.7,133,71.5
0.067193,464.7,90.6,949.1,44.6,2292.5,142.5,450.8,954.8,2277.2,133.1,71.6
0.069193,462.3,83.3,942.7,39.0,2293.7,132.7,452.9,949.3,2274.8,133.2,71.7
0.071193,457.1,73.8,937.6,35.3,2288.3,102.4,454,942.8,2273.7,133.2,71.8
0.073193,450.8,64.4,934.1,33.8,2282.5,75.3,454,935.3,2274,133.2,71.9
0.075193,444.6,55.7,930.5,35.4,2279.9,60.8,452.8,926.8,2275.7,133.2,72.1
0.077193,440.3,49.1,925.5,40.8,2279.4,59.9,450.6,917.3,2278.8,133.1,72.4
0.079193,437.1,45.8,919.0,49.8,2279.0,67.0,447.3,906.9,2283,133,72.7
0.081193,433.4,46.1,911.1,66.8,2278.5,76.1,443.2,895.8,2288.1,132.9,72.9
0.083193,429.1,48.3,902.1,97.5,2281.2,77.7,438.5,884.1,2294,132.8,73.2
0.085193,425.8,49.3,887.9,143.8,2288.3,71.0,433.3,872,2300.3,132.6,73.5
0.087193,423.6,49.5,863.2,186.9,2296.7,65.2,427.9,859.8,2306.7,132.4,73.7
0.089193,420.7,49.4,828.9,201.5,2306.2,65.2,422.6,847.4,2312.9,132.1,73.8
0.091193,417.0,47.8,804.5,188.7,2316.7,72.6,417.6,835.3,2318.5,131.9,74
0.093193,414.6,45.0,795.7,178.5,2326.2,82.6,413,823.6,2323.4,131.6,74.1
0.095193,413.1,42.6,794.4,175.4,2331.0,89.7,409,812.3,2327.3,131.3,74.1
0.097193,411.6,42.4,795.1,174.2,2330.9,96.1,405.6,801.7,2330.1,130.9,74.1
0.099193,409.8,44.2,796.2,175.6,2333.0,103.8,403,791.8,2331.6,130.6,74.2
0.101193,408.3,47.0,797.9,183.2,2339.5,101.9,401,782.6,2331.9,130.2,74.2
0.103193,406.6,49.5,796.9,193.5,2341.7,85.8,399.5,774.2,2331,129.8,74.3
0.105193,403.5,50.4,788.9,196.9,2337.0,72.7,398.5,766.6,2329,129.3,74.4
0.107193,399.2,49.0,774.5,192.4,2328.8,68.3,397.7,759.6,2326.1,128.9,74.4
0.109193,395.9,47.0,760.4,189.3,2319.8,70.8,396.8,753.2,2322.5,128.4,74.5
0.111193,393.8,47.2,748.8,195.2,2311.8,74.9,395.8,747.4,2318.4,128,74.4
0.113193,391.3,50.9,736.0,216.1,2307.3,76.0,394.4,742,2314.2,127.5,74.4
0.115193,389.3,58.2,723.0,256.7,2308.2,75.4,392.3,736.8,2310,127,74.3
0.117193,389.7,67.5,714.5,316.2,2310.4,79.4,389.5,731.9,2306.1,126.5,74.2
0.119193,390.9,79.9,710.8,381.5,2309.4,91.8,385.9,727.1,2302.6,126,74
0.121193,387.9,95.4,708.2,398.7,2304.3,106.3,381.3,722.5,2299.8,125.5,73.9
0.123193,378.6,108.1,707.3,355.0,2299.9,109.6,376,717.8,2297.7,125.1,73.7
0.125193,365.4,112.2,710.6,284.1,2297.8,101.0,369.8,713.2,2296.3,124.6,73.6
0.127193,353.1,109.5,716.1,221.2,2294.0,90.0,363.1,708.7,2295.7,124.1,73.5
0.129193,343.2,104.3,720.2,178.1,2287.0,83.0,356,704.4,2295.7,123.7,73.4
0.131193,336.6,99.2,719.6,154.0,2281.9,79.8,348.8,700.2,2296.3,123.2,73.3
0.133193,332.2,97.5,714.6,140.6,2281.7,79.1,341.7,696.3,2297.3,122.8,73
0.135193,328.7,101.8,707.7,135.3,2286.8,84.5,335,692.7,2298.6,122.4,72.7
0.137193,325.9,113.0,701.7,142.9,2297.0,102.4,329.1,689.7,2299.9,122,72.2
0.139193,324.6,132.6,695.8,177.3,2312.0,142.4,324.2,687.2,2301.1,121.6,71.5
0.141193,326.2,153.6,687.1,249.9,2320.0,201.2,320.6,685.4,2302.1,121.3,70.8
0.143193,330.3,171.8,670.8,363.6,2314.3,268.3,318.3,684.2,2302.7,120.9,69.9
0.145193,337.7,185.7,641.3,548.4,2301.1,355.1,317.5,683.9,2302.9,120.6,69.2
