time,f1,b1,f2,b2,f3,b3,f1p,f2p,f3p,f0,intensity
0.025703,331.2,94.4,1800.6,161.8,2562.3,269.1,354.9,1814.8,2507.1,141.3,71.7
0.027703,343.4,96.1,1800.4,136.3,2535.0,254.6,356.6,1814.9,2503.2,141,72.6
0.029703,356.5,99.7,1806.3,120.9,2511.3,245.7,359.4,1815.1,2497,140.6,73.4
0.031703,367.8,107.2,1813.0,109.9,2487.3,238.7,363.1,1815.5,2488.7,140.3,74.1
0.033703,375.4,114.0,1817.9,100.6,2467.9,228.1,367.6,1816.1,2478.9,139.9,74.8
0.035703,380.8,115.4,1824.1,94.8,2455.5,217.9,372.7,1817,2468,139.6,75.6
0.037703,386.7,114.9,1833.8,94.6,2444.0,211.4,378.1,1818.2,2456.5,139.2,76.2
0.039703,393.1,112.4,1842.3,98.6,2422.4,205.5,383.7,1819.8,2445.1,138.9,76.8
0.041703,397.8,103.8,1842.9,102.5,2394.9,196.7,389.3,1821.8,2434.3,138.6,77.3
0.043703,400.5,91.6,1836.9,101.0,2379.0,187.6,394.5,1824.3,2424.5,138.3,77.7
0.045703,403.1,82.1,1830.2,94.0,2381.2,184.3,399.4,1827.1,2416.1,138,78
0.047703,406.3,78.5,1824.9,86.3,2394.7,184.8,403.6,1830.4,2409.5,137.8,78.3
0.049703,408.6,78.9,1821.9,81.2,2407.7,184.0,407,1833.9,2404.8,137.5,78.4
0.051703,409.3,78.2,1822.7,78.7,2414.6,182.1,409.7,1837.6,2402,137.3,78.6
0.053703,409.4,75.7,1827.6,78.8,2417.5,181.5,411.5,1841.3,2401,137.1,78.7
0.055703,409.3,74.2,1834.5,81.8,2418.3,182.3,412.4,1845,2401.6,137,78.9
0.057703,408.0,72.6,1840.3,85.1,2417.7,183.7,412.6,1848.4,2403.5,136.8,79
0.059703,406.2,68.7,1846.0,85.7,2418.6,187.1,412,1851.3,2406.2,136.7,79.2
0.061703,405.2,63.9,1853.8,85.5,2424.5,193.4,410.9,1853.7,2409.3,136.6,79.3
0.063703,404.1,61.0,1861.9,88.4,2433.7,196.6,409.3,1855.4,2412.4,136.6,79.4
0.065703,402.3,59.4,1865.2,95.1,2438.0,192.5,407.5,1856.2,2414.9,136.5,79.5
0.067703,401.1,57.4,1862.7,101.6,2435.6,184.1,405.5,1856.1,2416.5,136.5,79.5
0.069703,401.2,56.9,1858.5,105.0,2430.6,173.7,403.6,1855,2416.8,136.5,79.5
0.071703,401.4,59.8,1854.7,107.8,2423.2,164.0,402,1853,2415.6,136.6,79.5
0.073703,400.7,63.5,1850.8,111.8,2410.3,157.5,400.6,1850.2,2412.7,136.6,79.5
0.075703,400.8,66.2,1848.0,117.4,2392.2,153.5,399.8,1846.5,2408.2,136.7,79.5
0.077703,402.6,69.9,1846.8,122.8,2375.4,149.2,399.5,1842.2,2402.1,136.8,79.4
0.079703,404.7,75.6,1844.5,122.1,2367.0,143.9,399.7,1837.4,2394.6,136.9,79.4
0.081703,405.9,81.1,1838.3,114.7,2363.7,140.1,400.6,1832.4,2386.2,137,79.3
0.083703,407.6,87.2,1828.7,106.6,2358.9,140.4,402,1827.2,2377.1,137.1,79.3
0.085703,410.1,94.9,1817.9,100.9,2352.0,141.1,404,1822.1,2367.9,137.2,79.2
0.087703,411.6,99.3,1808.6,94.2,2346.8,135.4,406.4,1817.2,2358.9,137.4,79.2
0.089703,412.1,96.6,1802.1,85.7,2343.7,123.0,409.1,1812.7,2350.6,137.5,79.2
0.091703,413.5,92.0,1797.6,78.7,2341.2,108.2,412.1,1808.7,2343.4,137.7,79.2
0.093703,415.5,89.9,1794.7,74.5,2340.7,96.3,415.2,1805.2,2337.6,137.8,79.2
0.095703,417.0,87.3,1794.9,71.0,2343.8,89.4,418.3,1802.2,2333.3,138,79.2
0.097703,418.5,82.7,1798.8,67.3,2349.3,86.1,421.2,1799.7,2330.8,138.1,79.2
0.099703,420.2,80.1,1803.8,65.5,2354.2,84.2,424,1797.5,2330,138.3,79.3
0.101703,421.6,80.8,1806.1,67.0,2356.6,83.2,426.4,1795.5,2330.6,138.4,79.3
0.103703,422.7,82.0,1805.5,70.4,2356.6,85.2,428.5,1793.4,2332.5,138.6,79.4
0.105703,424.7,83.4,1804.5,76.1,2354.5,91.4,430.2,1791.1,2335.3,138.7,79.6
0.107703,426.9,85.8,1802.7,85.3,2349.5,99.0,431.4,1788.3,2338.6,138.9,79.7
0.109703,428.5,87.2,1796.7,96.0,2342.6,103.4,432.2,1784.8,2341.8,139,79.8
0.111703,430.2,87.2,1784.7,105.3,2336.2,106.7,432.5,1780.3,2344.6,139.2,80
0.113703,432.1,88.2,1769.6,113.0,2330.8,113.1,432.5,1774.8,2346.4,139.3,80.1
0.115703,433.1,89.5,1755.3,118.0,2326.5,121.0,432.1,1767.9,2346.9,139.4,80.2
0.117703,432.8,88.9,1742.7,119.7,2324.2,126.9,431.4,1759.8,2345.6,139.5,80.2
0.119703,432.5,88.8,1730.3,121.9,2324.2,131.8,430.5,1750.4,2342.4,139.6,80.3
0.121703,432.5,92.5,1717.7,128.8,2324.0,135.1,429.5,1739.7,2337.3,139.7,80.3
0.123703,432.1,96.2,1707.3,138.4,2321.4,133.9,428.3,1728,2330.2,139.8,80.3
0.125703,431.5,94.9,1702.9,148.5,2317.7,130.1,427.1,1715.5,2321.2,139.9,80.3
0.127703,431.1,91.7,1706.4,161.5,2314.5,128.0,425.9,1702.5,2310.9,140,80.2
0.129703,430.4,91.0,1713.6,178.6,2309.9,127.6,424.8,1689.3,2299.4,140,80.1
0.131703,429.0,91.8,1714.3,193.4,2300.4,124.6,423.8,1676.3,2287.4,140.1,80
0.133703,427.5,92.2,1702.9,197.7,2285.0,116.8,422.8,1664,2275.3,140.1,79.9
0.135703,425.8,94.0,1682.4,189.7,2266.7,105.2,422,1652.7,2263.9,140.1,79.6
0.137703,423.3,97.7,1659.0,175.4,2251.7,92.6,421.4,1642.9,2253.6,140.2,79.3
0.139703,420.2,100.8,1636.7,159.8,2243.4,81.6,420.8,1634.8,2245,140.2,78.9
0.141703,417.7,104.3,1616.1,144.2,2239.3,73.6,420.5,1628.9,2238.4,140.2,78.4
0.143703,414.0,112.7,1597.3,129.4,2236.6,68.3,420.3,1625.2,2234.4,140.2,77.8
0.145703,404.6,126.7,1580.1,115.7,2234.5,63.8,420.2,1623.9,2233,140.2,77
