time,f1,b1,f2,b2,f3,b3,f1p,f2p,f3p,f0,intensity
0.025651,453.2,94.2,1145.4,172.8,1986.1,232.7,479.2,1149,1924.7,143.6,67
0.027651,463.4,97.0,1152.3,199.7,1970.0,242.9,480.3,1149.1,1926,143.3,68.3
0.029651,472.9,98.3,1155.5,220.1,1940.7,265.9,482.2,1149.3,1928,142.9,69.3
0.031651,484.9,97.4,1154.9,229.3,1907.7,276.6,484.8,1149.6,1930.8,142.6,70.2
0.033651,496.0,94.2,1152.8,227.3,1891.8,270.8,487.9,1149.8,1934.3,142.2,70.8
0.035651,503.7,91.0,1150.4,221.0,1894.4,261.2,491.6,1150,1938.3,141.8,71.3
0.037651,509.2,88.7,1147.8,209.1,1911.9,248.1,495.6,1150.2,1942.8,141.4,71.7
0.039651,512.5,86.7,1146.3,191.8,1934.1,232.7,499.8,1150.2,1947.6,141,72
0.041651,514.4,84.2,1146.7,174.2,1952.0,221.6,504.2,1150.1,1952.7,140.6,72.2
0.043651,515.8,81.8,1148.4,163.7,1962.3,223.7,508.6,1149.7,1957.8,140.2,72.3
0.045651,517.2,79.5,1149.1,159.0,1967.9,237.7,512.9,1149.2,1962.9,139.8,72.4
0.047651,518.9,76.2,1147.2,154.4,1971.7,255.9,516.9,1148.3,1967.8,139.4,72.5
0.049651,521.1,72.8,1143.6,146.6,1974.9,264.9,520.6,1147.2,1972.4,139,72.5
0.051651,523.9,70.2,1139.3,136.4,1978.0,264.1,524,1145.8,1976.7,138.6,72.5
0.053651,527.3,68.2,1134.7,124.1,1982.1,259.2,526.9,1144.1,1980.5,138.2,72.4
0.055651,530.5,66.8,1132.9,112.7,1987.8,254.1,529.3,1142.1,1983.8,137.8,72.3
0.057651,533.0,67.1,1136.4,103.9,1995.6,252.3,531.3,1139.9,1986.5,137.4,72.2
0.059651,533.0,70.2,1143.1,101.1,1998.5,265.4,532.8,1137.5,1988.7,137,72
0.061651,530.3,75.2,1148.3,105.3,1994.0,297.4,533.9,1134.9,1990.4,136.6,71.8
0.063651,527.9,80.4,1148.6,113.1,1987.1,333.6,534.6,1132.1,1991.5,136.3,71.7
0.065651,527.9,83.2,1141.4,117.2,1984.8,347.7,535.1,1129.3,1992.2,135.9,71.5
0.067651,528.0,84.0,1129.8,115.8,1985.6,343.1,535.3,1126.5,1992.4,135.6,71.4
0.069651,527.9,84.1,1118.5,110.8,1988.5,339.5,535.4,1123.7,1992.4,135.3,71.3
0.071651,530.3,84.6,1113.5,104.9,1996.7,354.5,535.5,1121,1992.2,134.9,71.2
0.073651,534.4,87.0,1114.5,102.7,2010.3,393.3,535.6,1118.4,1991.9,134.6,71.1
0.075651,536.5,93.5,1118.0,109.7,2024.5,461.6,535.9,1116,1991.6,134.3,71.1
0.077651,535.5,101.8,1118.9,125.8,2024.7,532.7,536.3,1113.8,1991.5,134,71.1
0.079651,535.3,109.0,1113.9,141.9,2004.0,575.0,537.1,1111.7,1991.7,133.8,71.1
0.081651,537.3,114.9,1105.6,142.9,1973.0,580.6,538.2,1109.9,1992.3,133.5,71.1
0.083651,540.0,119.8,1100.0,131.3,1950.5,574.4,539.6,1108.3,1993.4,133.3,71.2
0.085651,543.6,121.4,1098.3,115.7,1946.4,562.7,541.4,1106.9,1995.2,133,71.3
0.087651,548.6,117.4,1099.8,103.6,1959.2,542.1,543.6,1105.7,1997.6,132.8,71.4
0.089651,553.0,111.2,1103.6,99.6,1978.0,519.6,546.1,1104.6,2000.8,132.6,71.5
0.091651,555.2,105.6,1108.6,106.5,2000.3,503.4,548.9,1103.7,2004.9,132.4,71.5
0.093651,556.5,102.7,1111.2,120.9,2023.1,491.5,552,1102.8,2009.8,132.2,71.5
0.095651,559.4,102.1,1109.0,131.8,2040.9,461.5,555.3,1102,2015.6,132,71.5
0.097651,563.3,103.2,1103.0,138.6,2050.9,398.4,558.7,1101.2,2022.3,131.8,71.4
0.099651,566.0,104.7,1096.6,146.1,2055.3,332.7,562.3,1100.4,2029.8,131.7,71.4
0.101651,568.1,104.9,1091.7,152.8,2061.1,285.8,565.8,1099.6,2038.1,131.5,71.4
0.103651,570.7,104.3,1091.5,154.2,2067.6,268.3,569.3,1098.8,2047.1,131.4,71.3
0.105651,573.1,105.0,1095.4,155.8,2070.3,282.5,572.7,1098,2056.8,131.3,71.3
0.107651,574.2,106.7,1099.8,161.6,2066.0,335.9,576,1097.2,2067,131.2,71.2
0.109651,575.1,107.0,1101.1,165.5,2059.7,424.0,579.1,1096.4,2077.8,131.1,71.2
0.111651,577.3,107.5,1101.3,164.8,2065.9,533.6,582,1095.7,2088.9,131,71.2
0.113651,580.5,110.7,1102.0,165.6,2088.9,696.7,584.7,1095.1,2100.2,131,71.2
0.115651,582.8,113.5,1101.9,168.1,2109.1,896.0,587.1,1094.6,2111.7,130.9,71.2
0.117651,584.3,110.9,1099.0,163.1,2116.4,1019.6,589.4,1094.3,2123.3,130.9,71.3
0.119651,584.9,101.8,1093.3,149.5,2129.3,865.4,591.6,1094.3,2134.7,130.9,71.3
0.121651,585.8,92.3,1089.0,138.9,2145.4,603.3,593.5,1094.6,2146.1,130.9,71.4
0.123651,588.4,85.9,1087.1,136.5,2153.7,421.1,595.4,1095.2,2157.1,130.9,71.5
0.125651,593.4,83.4,1088.7,136.3,2158.8,335.4,597.2,1096.3,2167.8,130.9,71.5
0.127651,598.9,83.3,1094.2,135.6,2166.0,313.4,598.9,1097.7,2178.1,130.9,71.6
0.129651,602.3,84.7,1100.4,138.3,2179.9,340.1,600.7,1099.5,2187.9,130.9,71.7
0.131651,604.0,85.4,1103.7,141.1,2200.0,380.8,602.4,1101.8,2197.2,131,71.7
0.133651,606.7,84.3,1104.6,138.1,2218.8,387.2,604.2,1104.5,2205.9,131.1,71.7
0.135651,611.2,82.6,1107.6,132.2,2235.1,348.5,606.1,1107.5,2214,131.1,71.6
0.137651,615.8,81.4,1113.5,129.7,2244.5,290.9,608,1110.8,2221.5,131.2,71.6
0.139651,619.9,79.6,1119.7,130.7,2244.2,243.8,609.9,1114.4,2228.3,131.3,71.5
0.141651,623.0,78.1,1122.7,130.8,2237.1,227.8,611.9,1118.1,2234.5,131.4,71.4
0.143651,624.2,79.8,1123.3,129.5,2231.4,245.1,613.8,1122,2240,131.5,71.3
0.145651,622.3,85.1,1122.9,128.1,2233.0,298.5,615.7,1125.7,2244.9,131.6,71.2
0.147651,619.2,90.5,1123.0,123.7,2240.2,368.8,617.6,1129.4,2249.1,131.8,71.1
0.149651,618.4,94.3,1126.0,119.1,2245.3,435.9,619.3,1132.8,2252.8,131.9,71.2
0.151651,619.2,98.3,1132.8,119.6,2247.6,515.5,620.8,1135.9,2255.8,132,71.2
0.153651,620.0,100.8,1139.6,123.8,2251.4,595.3,622.1,1138.6,2258.3,132.1,71.3
0.155651,620.5,100.7,1143.1,125.4,2258.0,657.2,623.2,1140.7,2260.2,132.2,71.5
0.157651,620.2,101.3,1144.0,124.1,2264.7,711.7,624,1142.3,2261.6,132.4,71.6
0.159651,617.3,105.5,1145.3,125.5,2269.9,807.3,624.5,1143.3,2262.4,132.5,71.7
0.161651,611.8,111.2,1146.8,127.5,2268.8,973.6,624.7,1143.6,2262.6,132.6,71.8
