time,f1,b1,f2,b2,f3,b3,f1p,f2p,f3p,f0,intensity
0.025891,415.9,295.3,1114.5,275.7,2084.9,151.1,487.5,1147.7,2069.4,130.9,70.7
0.027891,407.8,285.2,1123.2,292.4,2058.0,115.7,488.8,1149.3,2069.5,131.5,71
0.029891,416.7,263.9,1141.2,278.3,2054.1,88.7,490.8,1152.1,2069.6,132.2,71.3
0.031891,446.4,242.9,1164.0,228.7,2065.6,71.1,493.7,1156,2069.8,132.9,71.7
0.033891,482.1,217.6,1177.0,182.8,2074.7,59.0,497.4,1160.9,2070.1,133.7,72.2
0.035891,507.0,194.5,1182.1,158.4,2079.1,54.8,501.7,1166.8,2070.4,134.4,72.9
0.037891,524.2,172.2,1184.9,149.0,2080.2,59.8,506.7,1173.6,2070.7,135.2,73.5
0.039891,538.1,151.4,1188.1,150.4,2076.6,72.6,512.3,1181.3,2071.1,136,74
0.041891,551.7,136.1,1192.7,156.8,2071.0,83.4,518.4,1189.9,2071.6,136.9,74.5
0.043891,564.1,127.3,1197.8,162.9,2068.0,86.5,524.9,1199.2,2072.1,137.7,74.8
0.045891,574.0,123.4,1206.1,168.4,2067.4,85.2,531.8,1209.1,2072.7,138.6,75
0.047891,580.4,122.9,1219.9,175.2,2067.8,82.0,538.9,1219.7,2073.3,139.5,75.2
0.049891,585.7,124.0,1238.6,182.5,2071.1,75.4,546.2,1230.7,2073.9,140.4,75.3
0.051891,592.4,124.1,1255.5,184.8,2079.5,65.4,553.6,1242.2,2074.6,141.3,75.4
0.053891,599.8,121.2,1268.6,180.5,2091.6,55.4,560.9,1254,2075.4,142.2,75.5
0.055891,605.3,115.8,1280.5,172.6,2101.7,48.7,568,1266,2076.3,143.2,75.6
0.057891,607.9,110.2,1291.1,172.2,2102.3,47.9,575,1278.2,2077.2,144.1,75.7
0.059891,606.7,105.1,1297.9,190.7,2091.3,53.3,581.7,1290.5,2078.1,145,75.8
0.061891,602.2,98.7,1300.6,232.8,2071.9,61.8,587.9,1302.8,2079.2,145.9,76
0.063891,597.9,91.5,1302.7,286.6,2056.7,66.3,593.7,1315,2080.3,146.8,76.1
0.065891,596.6,85.2,1313.7,322.2,2056.1,65.0,598.9,1327.1,2081.6,147.7,76.3
0.067891,596.9,80.5,1333.6,305.1,2067.9,58.9,603.5,1339.1,2083,148.6,76.6
0.069891,598.3,76.4,1349.7,249.0,2081.9,50.5,607.5,1350.7,2084.5,149.4,76.9
0.071891,601.3,71.5,1359.3,202.7,2088.4,45.0,610.7,1362.1,2086.1,150.3,77.2
0.073891,603.1,67.1,1368.4,186.2,2084.7,44.2,613.2,1373.2,2087.9,151.1,77.5
0.075891,602.0,63.9,1379.1,190.5,2075.7,46.2,614.8,1383.9,2089.8,151.9,77.8
0.077891,599.5,62.0,1387.9,202.7,2068.8,48.3,615.7,1394.2,2091.9,152.7,78
0.079891,598.1,61.6,1393.6,212.4,2067.2,51.2,615.8,1404.1,2094.2,153.4,78.1
0.081891,596.9,63.5,1398.8,220.8,2070.4,58.7,615,1413.7,2096.7,154.1,78.2
0.083891,594.5,68.5,1406.7,236.0,2080.0,76.1,613.5,1422.9,2099.5,154.8,78.2
0.085891,591.9,74.9,1418.0,252.7,2096.7,98.5,611.1,1431.7,2102.4,155.4,78.2
0.087891,590.2,81.6,1433.5,259.3,2117.8,111.7,608,1440.1,2105.7,156,78.2
0.089891,588.8,86.3,1449.1,253.5,2131.8,108.1,604.2,1448.2,2109.1,156.6,78.2
0.091891,587.5,87.7,1461.6,238.4,2135.4,98.0,599.7,1456,2112.8,157.1,78.1
0.093891,586.5,86.7,1470.2,217.9,2133.4,89.2,594.6,1463.5,2116.8,157.5,78.1
0.095891,585.4,85.4,1476.7,201.8,2131.3,85.2,588.9,1470.8,2121.1,157.9,78.1
0.097891,582.9,87.5,1484.1,201.6,2132.6,91.3,582.7,1477.8,2125.7,158.3,78
0.099891,578.3,93.9,1493.6,210.8,2138.9,109.2,576.1,1484.7,2130.5,158.5,78
0.101891,572.0,101.0,1503.7,204.4,2151.9,133.7,569.1,1491.4,2135.6,158.8,77.9
0.103891,566.1,103.0,1509.5,170.9,2167.6,142.1,561.8,1498.1,2141,158.9,77.9
0.105891,560.1,101.3,1513.1,132.5,2176.4,122.2,554.3,1504.6,2146.6,159,77.9
0.107891,552.3,100.2,1518.5,106.6,2176.8,94.8,546.6,1511.2,2152.4,159,77.8
0.109891,542.9,99.4,1525.3,92.7,2173.5,75.9,538.8,1517.8,2158.5,159,77.9
0.111891,533.3,96.7,1531.9,86.0,2169.3,65.9,531,1524.4,2164.8,158.9,77.9
0.113891,522.6,91.8,1538.8,82.5,2165.8,61.5,523.3,1531,2171.3,158.7,77.9
0.115891,512.4,86.0,1545.5,81.0,2165.8,62.4,515.6,1537.8,2178,158.5,78
0.117891,503.4,79.6,1550.3,80.8,2169.4,69.7,508.1,1544.6,2184.8,158.1,78.1
0.119891,496.0,73.0,1552.3,81.9,2173.2,88.1,500.7,1551.6,2191.7,157.8,78.2
0.121891,490.0,67.5,1554.1,85.2,2174.9,128.4,493.6,1558.6,2198.7,157.3,78.3
0.123891,484.8,63.5,1559.2,90.3,2179.4,189.4,486.8,1565.8,2205.7,156.8,78.4
0.125891,480.2,59.1,1566.9,92.5,2197.5,226.6,480.3,1573.1,2212.8,156.2,78.6
0.127891,476.9,54.3,1573.0,90.1,2218.8,205.0,474.1,1580.4,2219.8,155.6,78.8
0.129891,473.0,50.0,1578.1,88.5,2230.0,173.9,468.2,1587.9,2226.7,154.9,79
0.131891,467.9,45.9,1583.8,89.5,2231.9,154.6,462.7,1595.4,2233.6,154.2,79.1
0.133891,463.1,42.0,1590.7,92.8,2230.8,141.6,457.5,1602.9,2240.4,153.4,79.2
0.135891,459.6,38.4,1599.0,98.8,2235.2,126.8,452.7,1610.5,2247,152.5,79.3
0.137891,457.0,35.6,1608.1,108.6,2248.0,110.5,448.2,1618,2253.4,151.6,79.4
0.139891,454.4,33.3,1618.0,123.2,2263.2,96.4,444,1625.5,2259.5,150.7,79.4
0.141891,451.9,31.7,1628.4,137.8,2271.6,89.4,440.2,1632.9,2265.5,149.7,79.3
0.143891,448.4,30.2,1640.4,144.3,2271.9,88.0,436.5,1640.2,2271.2,148.7,79.3
0.145891,443.7,29.0,1651.8,137.1,2269.3,88.6,433.2,1647.4,2276.6,147.6,79.1
0.147891,439.0,27.6,1660.0,122.3,2270.3,93.5,430,1654.4,2281.7,146.5,78.9
0.149891,434.9,26.2,1665.3,107.5,2277.3,108.4,427,1661.2,2286.5,145.4,78.7
0.151891,430.1,25.4,1671.4,90.7,2290.7,135.0,424.2,1667.8,2291,144.2,78.4
0.153891,424.9,26.4,1680.3,72.8,2307.2,157.9,421.5,1674.1,2295.2,143,78.1
0.155891,420.0,28.5,1690.5,57.3,2320.1,159.5,418.8,1680.2,2299,141.8,77.9
0.157891,414.7,30.7,1698.2,47.5,2324.4,142.0,416.2,1686,2302.6,140.6,77.7
0.159891,408.1,30.8,1701.5,43.2,2322.7,118.9,413.5,1691.6,2305.9,139.4,77.6
0.161891,402.4,27.8,1701.4,43.7,2319.6,101.2,410.9,1696.9,2308.9,138.1,77.6
0.163891,399.5,23.7,1700.3,49.2,2316.2,93.9,408.2,1702,2311.6,136.9,77.6
0.165891,397.6,19.8,1700.7,59.7,2314.1,95.2,405.4,1706.8,2314.2,135.6,77.8
0.167891,395.5,17.2,1705.6,66.5,2316.2,97.4,402.5,1711.4,2316.6,134.4,77.9
0.169891,393.3,15.7,1713.2,61.9,2321.0,96.0,399.6,1715.8,2318.8,133.1,78.1
0.171891,391.6,15.2,1718.4,52.1,2324.1,95.9,396.4,1720.1,2320.9,131.8,78.2
0.173891,389.6,15.5,1720.3,44.4,2322.1,97.0,393.2,1724.2,2322.9,130.6,78.3
0.175891,387.3,15.7,1721.4,39.2,2316.7,94.0,389.8,1728.3,2324.9,129.3,78.4
0.177891,384.6,15.4,1724.1,35.6,2309.9,89.7,386.3,1732.3,2327,128.1,78.4
0.179891,380.8,15.1,1729.2,35.1,2303.9,91.6,382.7,1736.3,2329.1,126.8,78.3
0.181891,375.4,15.5,1736.8,38.6,2303.7,99.9,378.9,1740.4,2331.3,125.6,78.2
0.183891,369.9,16.5,1746.2,43.9,2318.0,103.2,375.1,1744.6,2333.7,124.4,77.9
0.185891,366.3,18.1,1756.5,47.3,2344.4,89.3,371.1,1749,2336.3,123.2,77.5
0.187891,363.8,20.6,1766.9,48.7,2364.8,70.1,367.1,1753.7,2339.2,122.1,77
0.189891,359.0,24.4,1776.2,49.4,2373.7,58.3,363.1,1758.5,2342.3,121,76.5
0.191891,350.7,26.9,1780.1,47.4,2373.2,54.0,359,1763.8,2345.8,119.9,75.9
0.193891,343.6,26.5,1779.4,42.7,2367.8,53.6,355,1769.4,2349.7,118.8,75.3
0.195891,340.7,25.5,1777.7,39.0,2359.5,59.9,351,1775.4,2353.9,117.8,74.8
0.197891,340.4,25.4,1776.8,39.6,2349.8,77.7,347.1,1781.8,2358.6,116.8,74.2
0.199891,340.7,25.4,1778.8,43.5,2344.6,100.9,343.3,1788.8,2363.7,115.8,73.6
0.201891,340.0,23.9,1785.0,46.4,2348.6,115.8,339.6,1796.2,2369.2,114.9,73
0.203891,337.7,21.0,1795.0,47.1,2359.6,123.5,336.1,1804.2,2375.2,114.1,72.5
0.205891,333.8,18.7,1805.1,48.5,2372.6,131.3,332.7,1812.6,2381.7,113.3,71.9
0.207891,328.5,17.4,1812.0,55.3,2382.3,143.3,329.5,1821.6,2388.6,112.5,71.4
0.209891,324.3,16.7,1817.7,63.8,2385.9,150.5,326.6,1831.1,2395.9,111.8,71.1
0.211891,324.0,15.3,1828.9,67.5,2390.9,148.5,323.9,1841.1,2403.6,111.1,70.9
0.213891,326.3,13.4,1845.7,69.4,2403.4,150.9,321.4,1851.6,2411.6,110.4,71
0.215891,328.4,12.1,1866.2,74.3,2426.3,160.3,319.2,1862.4,2420.1,109.8,71.4
0.217891,329.2,12.2,1884.1,78.2,2448.5,157.6,317.3,1873.7,2428.8,109.3,71.8
0.219891,329.8,12.7,1897.3,76.3,2463.1,140.0,315.6,1885.2,2437.7,108.8,72.2
0.221891,330.4,13.1,1909.6,69.8,2475.1,114.3,314.1,1897,2446.8,108.3,72.4
0.223891,329.7,13.4,1924.5,63.4,2487.3,85.9,312.9,1908.9,2456.1,107.8,72.4
0.225891,325.8,14.1,1941.3,60.7,2495.3,64.5,312,1921,2465.4,107.4,72.4
0.227891,319.0,15.5,1953.3,62.4,2496.3,54.1,311.3,1933,2474.7,107,72.1
0.229891,313.8,17.8,1959.2,67.4,2491.6,49.1,310.8,1945,2483.9,106.7,71.8
0.231891,314.5,21.0,1960.7,76.9,2482.1,50.2,310.4,1956.8,2493,106.3,71.3
0.233891,319.6,24.4,1960.5,98.3,2468.1,63.1,310.3,1968.3,2501.8,106,70.6
0.235891,325.5,28.6,1958.6,132.0,2450.5,94.4,310.3,1979.4,2510.4,105.8,69.8
0.237891,327.2,37.7,1959.1,152.9,2442.7,140.7,310.4,1990.1,2518.6,105.5,68.8
0.239891,319.6,54.9,1967.8,146.1,2471.9,179.8,310.6,2000.2,2526.3,0,67.8
0.241891,304.6,74.1,1978.9,131.4,2531.4,169.6,310.9,2009.7,2533.6,0,67
0.243891,297.8,78.7,1989.8,140.2,2561.0,130.0,311.2,2018.4,2540.3,0,66.4
0.245891,303.5,65.7,2005.8,190.8,2563.6,111.3,311.6,2026.3,2546.3,0,66.2
0.247891,309.6,48.7,2029.5,285.1,2558.2,107.1,311.9,2033.3,2551.7,0,66.2
0.249891,308.5,40.8,2060.7,378.0,2551.4,106.1,312.3,2039.4,2556.3,0,66.2
0.251891,304.3,40.2,2075.7,399.9,2547.7,106.4,312.6,2044.4,2560.1,0,66.1
0.253891,300.2,41.1,2070.3,356.0,2555.4,112.1,312.8,2048.4,2563.2,0,65.8
0.255891,297.9,41.3,2062.5,294.0,2578.3,118.4,313,2051.2,2565.3,0,65.2
0.257891,298.6,40.1,2060.2,253.6,2603.4,117.4,313.1,2053,2566.7,0,64.3
0.259891,302.7,35.8,2064.5,257.7,2618.2,124.3,313.2,2053.5,2567.1,0,63
