time,f1,b1,f2,b2,f3,b3,f1p,f2p,f3p,f0,intensity
0.025828,414.3,44.7,1493.9,82.4,2153.7,342.0,416.8,1461.2,2084.5,136.6,80.6
0.027828,416.3,41.9,1479.7,72.9,2094.8,330.3,417.4,1460.3,2086.3,136.5,80.7
0.029828,417.6,41.4,1469.0,66.3,2074.3,300.0,418.5,1458.8,2089.3,136.5,80.8
0.031828,419.6,42.0,1463.8,62.0,2082.8,257.1,419.9,1456.6,2093.4,136.5,80.9
0.033828,422.0,43.8,1461.4,60.3,2099.1,191.0,421.7,1453.8,2098.4,136.4,80.8
0.035828,424.4,46.9,1456.1,60.8,2106.6,132.7,423.8,1450.2,2104.4,136.4,80.7
0.037828,426.8,52.5,1444.7,61.5,2109.5,100.4,426.1,1446,2111.2,136.4,80.6
0.039828,429.2,62.8,1429.4,61.2,2113.8,87.0,428.8,1440.9,2118.6,136.3,80.3
0.041828,430.3,78.8,1413.8,60.3,2119.7,82.2,431.6,1435,2126.6,136.3,80.1
0.043828,430.0,95.7,1400.6,57.3,2125.5,79.1,434.5,1428.2,2134.8,136.2,79.8
0.045828,432.4,111.6,1392.3,52.9,2132.2,73.0,437.5,1420.4,2143.3,136.2,79.5
0.047828,440.0,127.3,1387.5,50.7,2141.2,65.2,440.5,1411.8,2151.8,136.1,79.3
0.049828,448.1,136.1,1382.0,52.1,2150.8,59.7,443.5,1402.2,2160.2,136.1,79.1
0.051828,452.6,135.4,1375.5,54.4,2158.7,55.4,446.4,1391.6,2168.3,136,78.9
0.053828,454.8,130.4,1370.4,56.9,2164.8,52.4,449.2,1380,2175.9,136,78.8
0.055828,456.3,124.9,1366.7,62.4,2170.3,51.9,451.8,1367.5,2183,135.9,78.7
0.057828,457.0,119.3,1361.8,72.6,2177.7,52.2,454.1,1354.1,2189.4,135.9,78.6
0.059828,457.9,112.9,1353.4,84.4,2188.9,50.5,456.1,1339.8,2195.1,135.8,78.5
0.061828,459.1,104.2,1342.3,96.0,2202.4,48.7,457.8,1324.8,2199.9,135.8,78.5
0.063828,459.5,94.5,1330.9,112.2,2215.3,49.7,459.2,1309,2203.8,135.8,78.5
0.065828,459.1,87.6,1318.3,136.9,2223.5,52.7,460.2,1292.6,2206.8,135.7,78.5
0.067828,458.9,85.0,1297.9,161.2,2223.6,53.5,460.8,1275.6,2208.8,135.7,78.5
0.069828,458.7,85.8,1263.5,166.4,2217.0,50.2,461.1,1258.4,2210,135.7,78.6
0.071828,457.8,86.7,1227.1,148.3,2208.5,44.9,460.9,1240.8,2210.2,135.6,78.6
0.073828,457.0,87.1,1205.4,128.8,2201.8,40.8,460.4,1223.2,2209.6,135.6,78.6
0.075828,457.2,90.5,1196.7,123.8,2197.0,39.7,459.5,1205.7,2208.3,135.6,78.6
0.077828,457.1,98.5,1192.0,135.5,2193.2,41.8,458.2,1188.4,2206.3,135.5,78.7
0.079828,455.7,108.0,1183.0,155.8,2192.6,44.6,456.6,1171.5,2203.8,135.5,78.7
0.081828,453.9,114.9,1163.9,163.0,2197.2,45.3,454.7,1155.1,2200.8,135.5,78.7
0.083828,451.7,116.1,1137.3,144.1,2205.2,44.5,452.5,1139.4,2197.5,135.5,78.8
0.085828,448.5,111.3,1112.9,114.0,2211.9,45.6,450,1124.5,2193.9,135.4,78.9
0.087828,445.1,104.4,1097.6,90.8,2212.4,51.2,447.4,1110.6,2190.4,135.4,79
0.089828,442.9,100.6,1091.5,79.3,2205.4,59.1,444.6,1097.8,2186.9,135.4,79.1
0.091828,441.1,100.7,1091.3,78.0,2194.1,64.6,441.7,1086,2183.5,135.3,79.2
0.093828,438.5,101.3,1093.3,85.5,2183.5,66.2,438.7,1075.6,2180.5,135.3,79.3
0.095828,436.3,99.8,1093.5,99.1,2178.4,65.4,435.7,1066.4,2177.8,135.2,79.5
0.097828,435.2,97.0,1087.4,115.3,2177.8,65.1,432.6,1058.5,2175.7,135.2,79.6
0.099828,433.6,93.4,1074.0,133.0,2176.7,67.2,429.6,1051.9,2174,135.1,79.8
0.101828,430.7,89.2,1057.5,152.5,2173.4,70.5,426.6,1046.6,2173,135.1,79.9
0.103828,427.8,84.6,1041.4,167.2,2171.4,72.9,423.7,1042.6,2172.6,135,80.1
0.105828,425.2,80.0,1024.4,168.8,2173.4,72.5,420.9,1039.7,2172.9,135,80.2
0.107828,421.2,74.6,1006.5,163.0,2178.1,68.5,418.2,1038,2173.9,134.9,80.4
0.109828,416.1,66.9,992.8,159.4,2182.3,64.0,415.6,1037.4,2175.4,134.8,80.6
0.111828,412.0,57.7,988.1,159.8,2184.1,63.6,413.3,1037.6,2177.6,134.8,80.7
0.113828,408.9,49.7,990.0,164.0,2181.6,67.7,411.1,1038.6,2180.4,134.7,80.8
0.115828,405.5,44.3,993.9,176.9,2174.4,73.3,409,1040.3,2183.6,134.6,81
0.117828,402.6,40.2,1000.7,202.2,2166.5,76.4,407.2,1042.5,2187.3,134.6,81.1
0.119828,401.6,36.0,1019.7,238.1,2163.1,77.3,405.5,1045,2191.2,134.5,81.2
0.121828,402.1,32.3,1057.7,273.6,2163.7,78.7,404,1047.7,2195.4,134.4,81.3
0.123828,402.0,29.9,1097.8,295.8,2167.5,82.4,402.6,1050.6,2199.7,134.4,81.3
0.125828,401.2,28.5,1116.8,315.7,2177.3,89.3,401.5,1053.3,2204.1,134.3,81.3
0.127828,400.8,27.3,1115.6,337.1,2192.9,100.0,400.5,1055.8,2208.3,134.3,81.2
0.129828,400.7,27.1,1104.7,348.4,2210.0,114.6,399.6,1058.1,2212.4,134.3,81.1
0.131828,400.0,28.0,1092.8,347.1,2225.9,123.8,398.9,1059.9,2216.1,134.3,80.9
0.133828,399.1,29.1,1085.8,336.0,2238.3,112.9,398.3,1061.2,2219.5,134.2,80.7
0.135828,399.2,29.8,1083.8,323.6,2246.1,91.4,397.9,1061.9,2222.4,134.2,80.5
0.137828,399.5,30.4,1079.7,327.8,2250.8,78.9,397.6,1062,2224.8,134.3,80.3
0.139828,398.9,31.7,1071.8,349.5,2251.8,76.4,397.4,1061.4,2226.6,134.3,80.1
0.141828,398.7,33.6,1073.0,366.0,2246.9,77.3,397.3,1060.2,2227.7,134.3,79.9
0.143828,399.6,36.1,1079.1,366.2,2236.1,80.6,397.3,1058.3,2228.2,134.3,79.6
0.145828,399.6,38.5,1073.7,362.3,2223.8,83.5,397.5,1055.7,2228,134.4,79.4
0.147828,398.2,39.8,1058.0,363.6,2218.0,80.0,397.7,1052.5,2227,134.4,79.2
0.149828,396.8,39.2,1036.7,369.8,2222.1,72.7,398.1,1048.7,2225.4,134.5,78.8
0.151828,396.6,37.9,1010.8,373.6,2231.9,68.0,398.5,1044.5,2223.1,134.5,78.4
0.153828,396.3,37.7,983.5,368.8,2241.2,68.6,399.1,1039.8,2220.1,134.6,77.9
0.155828,394.7,38.9,957.6,359.8,2244.9,74.6,399.7,1034.7,2216.5,134.6,77.4
0.157828,392.9,39.2,931.0,349.1,2239.9,87.8,400.5,1029.4,2212.4,134.7,77
0.159828,394.3,37.5,914.7,345.6,2225.7,111.8,401.4,1023.9,2207.7,134.8,76.8
0.161828,400.5,35.7,932.2,375.9,2205.6,144.2,402.3,1018.2,2202.7,134.8,77
0.163828,407.4,34.7,982.8,424.1,2184.7,171.2,403.4,1012.6,2197.3,134.9,77.6
0.165828,410.8,34.9,1029.0,441.6,2165.5,185.4,404.5,1007.1,2191.6,134.9,78.4
0.167828,411.3,35.8,1047.7,435.5,2150.6,189.5,405.8,1001.7,2185.6,134.9,79.2
0.169828,411.0,36.0,1052.9,426.0,2141.9,183.5,407.1,996.5,2179.6,135,79.9
0.171828,411.7,35.1,1061.0,421.2,2138.3,167.3,408.4,991.5,2173.5,135,80.5
0.173828,413.1,34.4,1071.6,422.7,2139.6,148.6,409.9,986.9,2167.3,135,80.9
0.175828,413.9,34.6,1068.6,427.9,2146.0,136.9,411.3,982.6,2161.3,135,81.2
0.177828,413.6,34.7,1041.9,427.1,2155.6,137.1,412.8,978.7,2155.4,135,81.4
0.179828,413.4,33.7,1002.5,401.3,2163.6,155.0,414.3,975.2,2149.7,134.9,81.5
0.181828,414.1,33.0,975.9,357.1,2163.3,192.1,415.8,972.1,2144.2,134.9,81.5
0.183828,415.5,34.0,966.8,322.1,2153.5,223.2,417.3,969.3,2139.1,134.8,81.5
0.185828,417.2,35.9,963.7,296.5,2147.4,228.9,418.7,967,2134.2,134.8,81.5
0.187828,418.4,37.3,958.5,266.3,2144.7,227.8,420.1,964.9,2129.8,134.7,81.4
0.189828,418.6,38.5,951.0,228.7,2134.8,229.7,421.3,963.2,2125.7,134.6,81.3
0.191828,418.9,40.3,945.5,194.3,2118.3,223.1,422.5,961.8,2122.1,134.5,81.2
0.193828,420.2,43.3,943.0,168.4,2102.4,209.2,423.6,960.7,2118.9,134.4,81.1
0.195828,422.4,48.4,942.4,148.6,2089.9,197.8,424.5,959.8,2116.2,134.3,80.9
0.197828,424.3,54.5,943.2,132.3,2086.9,189.8,425.3,959.1,2114,134.1,80.8
0.199828,426.1,58.7,944.9,117.9,2098.1,180.3,425.9,958.6,2112.2,134,80.7
0.201828,428.2,60.8,945.6,105.4,2119.1,167.9,426.3,958.3,2111,133.9,80.6
0.203828,430.0,62.6,945.0,96.7,2139.4,155.3,426.6,958.1,2110.2,133.8,80.6
0.205828,430.9,64.6,946.9,92.5,2153.7,141.6,426.7,958,2110,133.6,80.5
