time,f1,b1,f2,b2,f3,b3,f1p,f2p,f3p,f0,intensity
0.025286,430.2,124.1,1532.8,92.4,2226.5,69.3,439.5,1590.9,2228.2,145,75.2
0.027286,434.6,96.7,1556.7,94.9,2230.3,72.5,439.4,1591.5,2228.5,145,76.1
0.029286,437.5,76.8,1584.3,90.5,2232.8,82.7,439.2,1592.5,2229,144.9,77
0.031286,438.5,61.5,1601.9,78.3,2234.4,92.9,439,1594,2229.8,144.9,77.8
0.033286,439.1,50.2,1607.6,64.9,2235.4,100.3,438.7,1595.8,2230.7,144.8,78.4
0.035286,439.5,43.4,1606.8,55.4,2235.8,105.3,438.3,1598.1,2231.8,144.8,79
0.037286,439.5,39.0,1605.1,48.8,2236.2,108.6,437.9,1600.8,2233.1,144.7,79.5
0.039286,439.3,35.5,1605.4,43.9,2238.6,110.6,437.4,1603.9,2234.5,144.6,79.8
0.041286,439.0,33.0,1607.5,41.3,2243.6,112.1,436.9,1607.5,2236.1,144.5,80.1
0.043286,438.5,31.4,1609.0,42.1,2247.5,112.7,436.4,1611.5,2237.8,144.4,80.4
0.045286,437.7,30.7,1608.3,47.3,2247.6,111.0,435.8,1616,2239.6,144.3,80.6
0.047286,437.2,30.4,1607.2,57.6,2245.9,107.8,435.2,1620.9,2241.5,144.1,80.7
0.049286,436.8,30.8,1610.9,75.3,2245.5,108.9,434.5,1626.2,2243.5,143.9,80.7
0.051286,436.0,31.4,1624.7,101.4,2247.4,118.5,433.8,1631.9,2245.6,143.8,80.8
0.053286,434.8,30.7,1649.5,130.2,2251.0,133.5,433.1,1638,2247.7,143.6,80.8
0.055286,433.8,28.8,1674.3,148.8,2252.5,144.1,432.4,1644.4,2249.9,143.4,80.8
0.057286,432.5,26.5,1691.7,157.7,2247.4,147.8,431.6,1651.2,2252.1,143.1,80.8
0.059286,431.3,24.8,1699.8,161.1,2236.5,146.4,430.9,1658.2,2254.3,142.9,80.7
0.061286,430.5,23.5,1703.0,158.2,2226.0,143.6,430.1,1665.4,2256.5,142.6,80.7
0.063286,429.7,23.0,1706.7,143.7,2222.6,143.2,429.3,1672.8,2258.7,142.4,80.6
0.065286,428.3,23.4,1711.3,120.5,2228.8,145.9,428.4,1680.2,2260.9,142.1,80.5
0.067286,426.8,24.0,1713.1,100.2,2240.0,152.6,427.6,1687.6,2263.1,141.8,80.4
0.069286,425.7,24.0,1710.6,86.5,2249.6,164.8,426.7,1695,2265.3,141.5,80.4
0.071286,424.5,23.8,1705.8,78.0,2255.0,183.3,425.7,1702.2,2267.5,141.2,80.3
0.073286,422.9,24.0,1701.8,73.8,2258.2,209.0,424.8,1709.2,2269.6,140.8,80.2
0.075286,421.8,24.5,1700.8,74.4,2263.6,235.6,423.7,1715.8,2271.8,140.5,80.2
0.077286,420.8,25.2,1701.4,79.4,2274.9,259.7,422.7,1722,2273.9,140.1,80.1
0.079286,419.9,26.0,1703.0,86.8,2296.8,275.1,421.5,1727.7,2276,139.7,80.1
0.081286,419.5,26.8,1706.9,91.9,2325.5,248.2,420.3,1732.8,2278,139.3,80.1
0.083286,419.7,27.6,1713.6,91.4,2334.1,195.7,419,1737.2,2280.1,138.9,80.2
0.085286,419.5,28.5,1720.2,88.0,2329.2,158.4,417.6,1740.9,2282.1,138.5,80.2
0.087286,418.8,28.7,1724.4,86.3,2317.0,142.9,416.1,1743.8,2284,138,80.2
0.089286,418.0,27.9,1726.2,87.5,2299.8,144.5,414.6,1745.9,2285.9,137.6,80.2
0.091286,416.1,26.8,1725.9,89.3,2282.5,155.3,412.9,1747.1,2287.7,137.1,80.1
0.093286,413.1,27.0,1725.3,88.2,2273.3,164.7,411.1,1747.4,2289.5,136.6,80.1
0.095286,410.1,28.3,1727.2,84.2,2273.6,168.8,409.2,1746.9,2291.1,136.1,80
0.097286,408.0,29.9,1731.6,80.9,2277.4,169.9,407.1,1745.4,2292.6,135.6,79.9
0.099286,405.2,31.7,1738.2,80.5,2279.4,167.6,405,1743,2293.9,135.1,79.8
0.101286,401.4,33.7,1746.3,80.2,2281.4,162.2,402.7,1739.8,2295.1,134.6,79.7
0.103286,398.1,34.8,1751.8,75.2,2287.0,156.3,400.3,1735.9,2296.1,134,79.6
0.105286,395.3,34.5,1750.7,66.3,2296.0,150.6,397.8,1731.2,2296.7,133.5,79.5
0.107286,391.4,33.6,1743.6,58.5,2303.8,146.2,395.2,1725.9,2297.1,132.9,79.4
0.109286,387.1,33.1,1733.5,54.0,2306.8,142.4,392.5,1720.1,2297.2,132.3,79.3
0.111286,384.7,33.4,1723.5,51.2,2306.4,137.3,389.7,1713.8,2296.9,131.8,79.2
0.113286,383.6,34.6,1714.4,49.4,2304.8,130.2,386.8,1707.3,2296.2,131.2,79
0.115286,380.9,36.4,1703.2,49.1,2301.4,122.1,383.9,1700.6,2295,130.6,78.9
0.117286,377.3,38.4,1689.8,49.9,2295.8,113.7,380.8,1693.9,2293.4,130,78.8
0.119286,375.3,40.2,1678.7,50.2,2291.0,105.9,377.8,1687.2,2291.2,129.4,78.6
0.121286,374.0,42.1,1673.0,48.9,2289.3,101.5,374.7,1680.8,2288.4,128.8,78.5
0.123286,371.6,43.4,1670.8,46.6,2288.8,102.9,371.6,1674.8,2285.1,128.2,78.3
0.125286,369.3,44.3,1668.7,45.6,2285.2,111.1,368.5,1669.2,2281.1,127.6,78.2
0.127286,369.4,45.8,1666.1,47.1,2274.4,121.7,365.4,1664.3,2276.5,127,78
0.129286,369.6,48.3,1663.0,51.3,2253.8,129.8,362.3,1660.1,2271.1,126.4,77.7
0.131286,366.2,50.1,1659.3,56.6,2229.1,131.5,359.4,1656.7,2265.2,125.8,77.5
0.133286,360.8,50.6,1655.7,62.5,2210.5,126.9,356.4,1654.1,2258.5,125.2,77.2
0.135286,357.1,52.3,1655.3,70.5,2206.2,120.9,353.6,1652.6,2251.1,124.7,77
0.137286,353.6,57.6,1660.4,83.5,2212.3,118.2,350.9,1652,2243.1,124.1,76.9
0.139286,347.5,63.6,1670.3,101.7,2219.3,122.1,348.3,1652.4,2234.4,123.6,76.8
0.141286,342.4,64.8,1680.9,117.9,2224.6,129.8,345.8,1653.8,2225.2,123,76.9
0.143286,342.2,60.9,1688.1,124.3,2232.2,133.4,343.4,1656.1,2215.3,122.5,77
0.145286,343.8,53.7,1691.1,123.4,2241.9,133.4,341.2,1659.4,2204.9,122,77.2
0.147286,343.3,44.5,1690.3,122.5,2247.7,138.4,339.2,1663.5,2194.1,121.5,77.4
0.149286,342.1,36.1,1685.8,126.7,2244.0,156.9,337.3,1668.4,2182.8,121,77.7
0.151286,342.6,31.6,1680.2,134.8,2225.3,181.1,335.6,1673.8,2171.2,120.5,77.8
0.153286,342.9,30.5,1676.2,141.8,2185.8,186.4,334,1679.8,2159.4,120.1,78
0.155286,338.8,31.8,1675.7,144.5,2145.4,163.9,332.7,1686.1,2147.3,119.7,78
0.157286,330.7,33.2,1677.6,142.1,2121.1,144.2,331.5,1692.5,2135.2,119.3,78.1
0.159286,324.5,32.9,1678.4,136.5,2108.3,136.7,330.4,1698.9,2123.1,118.9,78
0.161286,322.6,32.1,1675.8,133.4,2098.9,135.9,329.5,1705.1,2111.1,118.5,78
0.163286,321.8,31.6,1670.4,136.8,2087.5,132.9,328.8,1710.9,2099.2,118.2,78
0.165286,319.3,30.2,1665.3,148.7,2074.7,126.4,328.2,1716,2087.7,117.8,78
0.167286,317.6,27.6,1664.4,170.2,2063.6,126.3,327.7,1720.4,2076.5,117.5,78
0.169286,319.0,25.2,1670.8,206.0,2052.5,140.7,327.4,1723.7,2065.9,117.2,78
0.171286,321.7,24.3,1689.8,254.7,2040.0,169.3,327.2,1725.9,2055.7,117,77.9
0.173286,322.7,24.6,1728.6,311.9,2027.5,206.3,327.1,1726.7,2046.2,116.7,77.8
0.175286,321.5,24.5,1775.7,369.2,2015.2,235.9,327,1726,2037.4,116.5,77.7
0.177286,321.8,22.9,1803.4,434.0,2003.4,236.9,327.1,1723.7,2029.3,116.3,77.6
0.179286,325.0,20.9,1778.6,457.4,2007.5,214.2,327.2,1719.7,2022.1,116.1,77.5
0.181286,328.9,18.9,1719.2,380.0,2021.9,188.0,327.3,1713.9,2015.7,115.9,77.4
0.183286,331.1,17.3,1679.3,295.1,2027.6,167.5,327.5,1706.2,2010.2,115.8,77.2
0.185286,331.7,16.3,1662.4,259.3,2028.0,158.0,327.7,1696.7,2005.6,115.6,77
0.187286,333.0,15.4,1652.5,251.0,2029.9,156.3,327.9,1685.3,2001.9,115.5,76.8
0.189286,334.6,14.6,1641.1,239.8,2032.0,158.7,328.2,1672.1,1999.1,115.4,76.6
0.191286,334.6,13.8,1628.7,221.1,2029.2,157.8,328.4,1657.1,1997.2,115.2,76.3
0.193286,333.0,12.8,1620.2,213.6,2021.7,154.2,328.6,1640.6,1996.2,115.1,76.1
0.195286,332.3,11.9,1617.9,225.4,2014.5,152.8,328.8,1622.6,1996,115,75.8
0.197286,333.6,11.5,1619.7,249.2,2008.0,149.4,329,1603.2,1996.5,114.9,75.6
0.199286,334.6,11.7,1617.6,268.3,2000.9,137.2,329.1,1582.8,1997.7,114.8,75.3
0.201286,333.3,12.2,1606.5,278.6,1995.0,122.9,329.3,1561.5,1999.6,114.7,75.1
0.203286,331.4,12.5,1587.8,292.7,1991.0,115.7,329.4,1539.5,2002,114.6,74.9
0.205286,331.0,12.5,1560.2,314.6,1987.7,119.6,329.4,1517.2,2004.8,114.6,74.7
0.207286,331.1,12.8,1526.0,329.7,1985.1,135.9,329.5,1494.7,2008.1,114.5,74.5
0.209286,329.6,13.4,1501.9,331.0,1983.9,153.9,329.5,1472.4,2011.6,114.4,74.3
0.211286,327.5,13.6,1484.9,334.4,1984.1,162.5,329.5,1450.6,2015.3,114.3,74.2
0.213286,327.1,13.6,1465.1,342.9,1986.4,161.9,329.5,1429.5,2019,114.2,74
0.215286,328.2,13.5,1436.6,352.2,1989.2,157.2,329.5,1409.4,2022.8,114.1,73.9
0.217286,328.5,13.8,1404.4,370.8,1989.8,153.4,329.4,1390.6,2026.4,114,73.7
0.219286,327.4,14.5,1378.7,422.8,1988.0,154.4,329.4,1373.3,2029.8,113.9,73.5
0.221286,327.3,16.0,1360.1,522.2,1988.8,162.7,329.3,1357.9,2033,113.8,73.3
0.223286,329.1,18.4,1342.3,651.0,1998.9,177.2,329.2,1344.4,2035.8,113.7,72.9
0.225286,330.8,22.0,1316.4,733.5,2025.5,191.7,329.2,1333.1,2038.2,113.7,72.5
0.227286,329.7,26.4,1280.1,728.1,2063.4,196.7,329.2,1324.1,2040.1,113.6,72
0.229286,326.7,29.4,1252.4,725.8,2091.6,203.1,329.1,1317.7,2041.5,113.5,71.3
0.231286,324.9,31.5,1250.2,788.0,2113.9,225.9,329.1,1313.7,2042.3,113.4,70.6
0.233286,324.7,33.6,1289.3,896.3,2141.3,268.9,329.1,1312.4,2042.6,113.3,69.6
