time,f1,b1,f2,b2,f3,b3,f1p,f2p,f3p,f0,intensity
0.025741,350.2,53.9,886.6,89.4,2198.3,365.3,398.5,870.6,2228.6,165.1,75.6
0.027741,350.6,57.7,877.1,94.8,2210.3,308.9,398.7,870,2229.6,164.8,76.8
0.029741,356.6,71.1,872.6,119.4,2228.0,279.9,399.2,869,2231.4,164.5,77.8
0.031741,368.3,88.7,870.9,164.5,2236.4,275.0,399.8,867.6,2233.8,164.2,78.6
0.033741,383.1,102.0,873.1,220.8,2238.9,282.8,400.5,865.8,2236.9,163.9,79.2
0.035741,398.2,106.2,878.3,277.3,2241.2,291.9,401.4,863.7,2240.6,163.6,79.7
0.037741,409.9,104.8,881.2,327.3,2244.9,294.7,402.5,861.2,2244.8,163.3,80.1
0.039741,419.1,104.9,878.2,382.1,2248.8,286.6,403.6,858.4,2249.5,162.9,80.4
0.041741,427.2,107.6,868.1,450.4,2253.2,262.1,404.9,855.3,2254.6,162.6,80.6
0.043741,431.9,110.8,854.1,502.0,2259.1,226.5,406.2,852,2260.1,162.3,80.7
0.045741,433.8,115.0,840.0,516.5,2267.1,185.4,407.6,848.4,2265.9,162,80.8
0.047741,434.0,121.1,829.5,496.8,2274.7,151.3,409,844.6,2271.8,161.7,80.9
0.049741,432.9,127.1,821.0,469.9,2280.0,129.2,410.4,840.6,2277.9,161.4,80.9
0.051741,431.1,132.0,810.9,449.4,2283.5,115.5,411.9,836.5,2284.1,161,81
0.053741,429.8,137.2,799.5,439.2,2286.3,110.1,413.3,832.4,2290.3,160.7,81
0.055741,428.8,141.0,791.1,426.4,2291.3,110.6,414.7,828.1,2296.3,160.4,81.1
0.057741,428.0,140.6,788.9,399.6,2301.6,116.2,416,823.9,2302.2,160.1,81.1
0.059741,428.1,137.7,791.1,366.5,2316.7,127.7,417.2,819.6,2307.9,159.8,81.1
0.061741,428.5,134.8,794.0,339.2,2332.3,143.1,418.3,815.4,2313.3,159.5,81
0.063741,428.6,131.2,797.3,320.6,2346.6,161.1,419.3,811.3,2318.4,159.2,81
0.065741,428.8,127.9,800.7,313.7,2356.2,178.9,420.2,807.3,2323,158.8,81
0.067741,428.5,124.6,804.4,311.4,2359.7,194.0,420.9,803.4,2327.3,158.5,80.9
0.069741,427.5,119.0,808.4,304.6,2353.8,192.4,421.4,799.7,2331.1,158.2,80.8
0.071741,426.7,112.2,812.7,292.5,2343.2,171.8,421.8,796.2,2334.4,157.8,80.7
0.073741,426.0,106.6,815.7,278.3,2334.6,145.0,422,793,2337.3,157.5,80.6
0.075741,424.8,103.2,814.7,266.2,2331.9,125.8,422,790,2339.6,157.1,80.5
0.077741,423.5,101.0,811.0,257.3,2333.4,115.7,421.8,787.2,2341.5,156.7,80.4
0.079741,422.2,100.0,806.6,250.7,2336.9,110.5,421.5,784.7,2342.9,156.3,80.3
0.081741,421.2,100.4,803.8,247.1,2339.3,108.8,420.9,782.5,2343.8,155.9,80.2
0.083741,421.1,102.2,802.7,247.3,2339.1,110.5,420.2,780.6,2344.3,155.4,80.1
0.085741,421.2,106.6,802.1,249.4,2336.4,114.3,419.3,778.9,2344.4,155,80
0.087741,419.5,112.4,799.3,246.9,2332.8,115.7,418.3,777.6,2344.2,154.5,79.9
0.089741,415.8,118.5,794.5,236.8,2328.1,112.6,417,776.5,2343.7,154,79.8
0.091741,411.0,123.9,789.6,221.0,2323.1,106.6,415.7,775.7,2342.8,153.5,79.7
0.093741,405.5,127.3,785.1,201.5,2319.9,100.7,414.2,775.1,2341.8,152.9,79.6
0.095741,400.0,127.6,780.2,177.4,2319.4,96.5,412.6,774.8,2340.6,152.3,79.6
0.097741,395.6,127.0,775.7,153.5,2321.5,96.7,410.8,774.7,2339.3,151.7,79.5
0.099741,391.7,126.8,772.4,133.9,2325.0,101.0,409,774.7,2338,151.1,79.4
0.101741,387.6,126.3,769.9,117.7,2329.9,109.2,407.1,775,2336.6,150.5,79.3
0.103741,384.5,127.1,768.5,107.4,2335.2,122.5,405.2,775.3,2335.3,149.8,79.2
0.105741,381.2,129.5,767.7,100.2,2340.8,140.5,403.2,775.8,2334,149.1,79.2
0.107741,377.2,127.8,766.1,93.2,2345.4,150.1,401.1,776.3,2332.8,148.4,79.1
0.109741,374.3,122.1,763.5,87.4,2349.0,143.0,399,776.9,2331.8,147.7,79
0.111741,373.3,116.6,760.5,86.5,2351.1,126.7,397,777.4,2331,147,79
0.113741,374.2,111.0,757.9,92.7,2348.8,112.1,394.9,778,2330.4,146.2,78.9
0.115741,376.9,104.6,755.3,105.6,2341.2,101.8,392.8,778.4,2330,145.4,78.9
0.117741,381.7,98.8,751.5,129.1,2329.4,92.9,390.7,778.8,2329.8,144.6,78.8
0.119741,386.7,93.4,746.9,163.2,2320.1,86.8,388.7,779,2329.7,143.7,78.7
0.121741,391.6,85.5,742.6,213.2,2316.8,85.9,386.7,779.1,2330,142.9,78.6
0.123741,397.0,76.5,742.5,282.3,2320.0,93.7,384.8,779,2330.3,142,78.5
0.125741,402.2,68.7,747.6,364.1,2326.1,107.7,382.9,778.7,2330.9,141.1,78.4
0.127741,405.3,63.0,752.9,430.7,2331.9,117.0,381,778.1,2331.6,140.2,78.2
0.129741,405.3,60.1,755.7,435.6,2335.6,108.7,379.2,777.3,2332.4,139.3,78
0.131741,404.0,58.4,763.1,403.3,2338.6,91.7,377.4,776.3,2333.4,138.4,77.8
0.133741,401.3,56.9,778.0,365.6,2341.9,76.8,375.7,775,2334.3,137.5,77.6
0.135741,396.5,53.8,796.2,326.0,2345.0,69.5,374.1,773.4,2335.2,136.5,77.6
0.137741,391.5,47.8,813.5,283.6,2346.8,70.5,372.5,771.5,2336.1,135.5,77.6
0.139741,387.2,41.4,824.2,244.3,2345.7,81.5,370.9,769.4,2336.9,134.6,77.8
0.141741,383.5,38.2,821.0,221.3,2339.6,100.0,369.3,767,2337.6,133.6,78
0.143741,380.0,37.7,808.2,210.7,2329.2,118.7,367.9,764.4,2338.1,132.6,78.3
0.145741,377.0,38.7,796.2,209.0,2321.8,129.8,366.4,761.6,2338.4,131.6,78.6
0.147741,373.5,39.7,788.5,208.5,2321.0,134.5,365,758.6,2338.4,130.6,78.8
0.149741,369.1,39.1,778.8,198.3,2324.5,133.6,363.6,755.4,2338.2,129.7,79
0.151741,365.7,36.5,765.1,176.8,2331.5,127.0,362.2,752.2,2337.7,128.7,79.1
0.153741,364.0,33.8,752.8,152.4,2342.3,118.2,360.9,748.8,2336.8,127.7,79.1
0.155741,362.1,31.8,743.7,128.8,2353.8,109.0,359.6,745.4,2335.7,126.7,79.1
0.157741,359.5,30.8,736.9,112.3,2356.1,102.7,358.3,742,2334.2,125.7,79.1
0.159741,357.6,30.5,731.4,105.8,2348.5,102.8,357.1,738.7,2332.3,124.7,79.1
0.161741,355.9,31.6,728.8,111.5,2333.9,113.7,355.9,735.5,2330.2,123.7,79.2
0.163741,352.1,34.3,730.0,130.4,2318.8,135.3,354.7,732.4,2327.7,122.7,79.2
0.165741,346.3,36.8,731.2,157.2,2310.0,159.6,353.6,729.6,2324.9,121.8,79.3
0.167741,342.7,37.8,728.7,180.6,2313.5,172.7,352.5,727,2321.9,120.8,79.3
0.169741,341.5,38.2,725.0,194.5,2322.4,175.2,351.5,724.8,2318.7,119.8,79.3
0.171741,339.1,38.3,723.4,198.1,2327.8,174.1,350.5,722.9,2315.4,118.9,79.3
0.173741,334.2,37.0,720.2,188.6,2325.2,173.3,349.6,721.5,2311.9,117.9,79.3
0.175741,330.9,34.5,711.1,173.9,2319.1,174.3,348.8,720.5,2308.3,117,79.2
0.177741,330.9,32.5,699.2,161.8,2314.5,180.3,348,720,2304.8,116.1,79.1
0.179741,331.3,31.9,693.2,154.1,2313.4,193.2,347.4,720.1,2301.3,115.1,78.8
0.181741,327.4,32.6,694.9,144.6,2316.0,215.5,346.8,720.8,2297.9,114.2,78.4
0.183741,319.1,33.6,700.8,134.6,2327.2,240.4,346.4,722.1,2294.7,113.3,77.9
0.185741,314.5,34.8,706.0,128.6,2339.7,262.3,346,724,2291.8,112.4,77.4
0.187741,317.1,37.8,713.1,122.6,2335.1,303.9,345.8,726.6,2289.2,111.5,76.7
0.189741,324.5,44.2,724.2,110.2,2303.8,341.7,345.7,729.9,2286.9,110.7,76.1
0.191741,332.0,52.1,731.4,96.1,2267.3,337.2,345.8,733.8,2285,109.8,75.5
0.193741,337.7,55.4,733.1,87.8,2237.0,319.9,346,738.4,2283.7,109,74.9
0.195741,343.6,53.8,733.2,91.0,2213.6,316.2,346.3,743.7,2282.8,108.2,74.4
0.197741,350.8,56.1,735.3,110.1,2197.1,326.2,346.8,749.6,2282.4,107.3,73.9
0.199741,358.4,68.2,739.1,155.2,2188.7,342.9,347.4,756.1,2282.6,106.5,73.5
0.201741,361.5,88.8,737.2,218.6,2188.0,361.4,348.1,763.3,2283.3,105.8,73
0.203741,359.6,109.1,728.4,287.0,2193.7,381.5,349,770.9,2284.7,105,72.5
0.205741,360.0,113.8,727.9,359.6,2214.8,404.7,350,779.1,2286.6,104.3,72
0.207741,366.9,104.0,751.1,446.7,2253.1,430.5,351.1,787.7,2289.1,103.5,71.6
0.209741,376.8,84.8,802.6,506.6,2292.1,437.1,352.4,796.7,2292.1,102.8,71.2
0.211741,384.6,69.4,841.8,504.6,2310.3,414.4,353.7,806.1,2295.6,102.1,70.8
0.213741,387.5,62.1,851.8,500.8,2320.5,394.8,355.2,815.6,2299.7,101.4,70.6
0.215741,387.9,57.5,857.6,514.8,2335.0,383.5,356.7,825.4,2304.1,100.8,70.4
0.217741,387.4,54.0,877.0,549.5,2357.5,368.5,358.3,835.3,2308.9,100.2,70.3
0.219741,384.1,50.4,910.3,608.9,2385.8,360.9,359.9,845.2,2314,99.5,70.2
0.221741,377.7,46.9,938.0,706.8,2418.0,404.0,361.6,855,2319.4,98.9,70
0.223741,374.0,44.5,960.4,875.3,2462.9,503.7,363.2,864.7,2324.9,98.4,69.9
0.225741,374.5,43.7,993.2,1088.3,2521.7,617.8,364.9,874.1,2330.5,97.8,69.6
0.227741,376.2,45.2,953.1,989.1,2509.4,664.7,366.5,883.3,2336.1,97.2,69.2
0.229741,376.8,50.6,907.3,658.1,2411.5,549.8,368.1,892,2341.6,96.7,68.6
0.231741,376.8,64.0,886.2,452.5,2360.5,396.7,369.6,900.3,2347,96.2,67.9
0.233741,375.7,84.5,870.3,394.0,2340.8,340.4,371,908.1,2352.2,95.7,67.1
0.235741,375.5,101.4,862.5,417.3,2325.4,346.8,372.4,915.2,2357,95.3,66.3
0.237741,378.0,111.7,866.9,487.1,2305.5,386.5,373.6,921.7,2361.5,94.8,65.6
0.239741,380.0,115.5,881.5,549.4,2291.4,422.9,374.7,927.4,2365.5,94.4,65
0.241741,377.2,119.7,889.2,567.7,2300.1,422.9,375.6,932.3,2369,94,64.4
0.243741,367.4,130.3,875.3,549.8,2324.6,391.9,376.4,936.5,2371.9,93.6,63.9
0.245741,354.6,142.6,866.4,534.7,2340.3,395.4,377.1,939.7,2374.3,93.2,63.7
0.247741,341.8,149.6,890.4,552.8,2345.7,494.4,377.5,942,2376,92.9,63.6
0.249741,332.3,135.0,951.2,587.4,2330.1,694.4,377.8,943.4,2377,92.6,63.5
0.251741,329.8,97.7,1024.3,608.1,2295.8,817.1,377.9,943.9,2377.3,92.3,63.6
