time,f1,b1,f2,b2,f3,b3,f1p,f2p,f3p,f0,intensity
0.025642,455.8,306.0,1338.3,122.5,2367.3,214.9,499.1,1340.5,2446.5,132.8,73.7
0.027642,475.2,248.0,1326.8,94.8,2400.1,141.0,500,1337.9,2444.6,133.1,74.2
0.029642,490.3,214.6,1321.2,78.6,2418.6,99.9,501.5,1333.7,2441.5,133.4,74.5
0.031642,506.2,195.0,1318.1,69.3,2431.0,80.7,503.6,1327.9,2437.2,133.7,74.7
0.033642,521.1,180.0,1316.4,63.3,2441.4,77.5,506,1320.7,2431.8,134.1,74.9
0.035642,531.8,169.8,1317.6,60.0,2451.9,86.4,508.8,1312.3,2425.4,134.4,75.1
0.037642,538.4,163.1,1320.3,60.9,2464.1,107.1,511.8,1302.9,2418.3,134.8,75.2
0.039642,540.7,154.3,1319.8,67.6,2476.9,144.8,514.8,1292.7,2410.4,135.2,75.3
0.041642,537.8,142.4,1309.9,80.5,2482.0,201.7,517.8,1281.8,2402,135.6,75.4
0.043642,531.6,131.2,1287.3,92.9,2469.4,273.5,520.6,1270.4,2393.4,136,75.4
0.045642,524.6,122.4,1257.1,94.9,2432.8,360.6,523.1,1258.7,2384.5,136.4,75.5
0.047642,519.0,115.7,1230.5,88.0,2381.1,421.7,525.2,1246.8,2375.8,136.7,75.6
0.049642,516.4,111.7,1214.7,80.8,2337.6,464.0,526.7,1234.8,2367.2,137.1,75.8
0.051642,517.2,110.4,1206.9,75.9,2288.6,437.1,527.6,1222.7,2359.1,137.5,76
0.053642,519.7,111.2,1199.6,70.7,2259.2,309.0,527.8,1210.5,2351.6,137.9,76.2
0.055642,521.9,116.7,1190.4,65.9,2265.9,193.4,527.2,1198.2,2344.9,138.2,76.4
0.057642,522.8,129.8,1180.3,64.5,2287.0,131.7,525.9,1185.7,2339,138.6,76.7
0.059642,521.9,147.1,1168.6,65.6,2308.1,103.4,523.8,1172.9,2334.1,138.9,76.9
0.061642,518.3,160.8,1154.3,66.5,2327.1,94.1,521,1159.8,2330.3,139.2,77.1
0.063642,512.9,163.0,1140.9,64.1,2343.7,97.3,517.6,1146.3,2327.5,139.5,77.3
0.065642,508.1,156.8,1132.1,60.6,2355.9,107.9,513.5,1132.2,2325.9,139.8,77.5
0.067642,503.7,150.7,1126.8,61.0,2362.4,116.4,509,1117.6,2325.2,140,77.6
0.069642,499.0,148.8,1120.7,69.3,2364.6,114.2,504,1102.3,2325.6,140.3,77.8
0.071642,495.5,153.1,1111.2,86.9,2363.0,104.2,498.8,1086.4,2326.8,140.4,77.9
0.073642,493.8,164.6,1095.8,114.7,2359.4,96.1,493.4,1070,2328.7,140.6,78.1
0.075642,492.5,182.0,1071.1,154.6,2356.7,97.4,488,1053,2331.2,140.7,78.3
0.077642,491.1,201.4,1037.6,202.0,2356.2,110.3,482.7,1035.8,2334,140.8,78.5
0.079642,488.8,217.5,1003.2,236.8,2355.4,133.5,477.5,1018.4,2337,140.9,78.8
0.081642,482.6,228.6,975.3,238.3,2347.0,159.4,472.7,1001.1,2340,140.9,79
0.083642,472.0,232.5,956.7,211.0,2327.2,167.1,468.1,984.2,2342.6,140.8,79.3
0.085642,462.9,224.9,947.9,181.3,2309.4,151.0,464,967.9,2344.9,140.8,79.7
0.087642,458.3,211.6,944.9,164.5,2302.3,134.6,460.2,952.5,2346.6,140.6,80
0.089642,455.7,198.1,941.9,156.5,2305.5,129.4,456.9,938.2,2347.5,140.5,80.3
0.091642,453.6,186.6,935.1,145.6,2317.3,133.2,454,925.4,2347.6,140.3,80.5
0.093642,451.8,177.5,925.4,127.3,2334.1,135.2,451.5,914.2,2346.7,140,80.7
0.095642,449.5,171.6,915.8,109.7,2346.6,125.1,449.3,904.8,2345,139.7,80.8
0.097642,446.5,170.9,907.0,99.4,2348.7,106.0,447.2,897.3,2342.3,139.3,80.8
0.099642,444.3,176.5,898.9,95.1,2343.9,87.7,445.3,891.7,2338.8,138.9,80.7
0.101642,443.1,188.4,891.0,94.4,2337.8,76.1,443.4,888.1,2334.5,138.5,80.6
0.103642,441.1,202.2,883.7,96.3,2333.3,70.8,441.4,886.4,2329.6,138,80.4
0.105642,437.3,209.1,878.9,99.6,2330.9,67.4,439.2,886.3,2324.3,137.5,80.1
0.107642,433.4,207.4,877.8,103.3,2329.9,65.5,436.6,887.8,2318.7,136.9,79.8
0.109642,431.1,203.8,878.4,111.4,2328.7,68.1,433.7,890.6,2313,136.3,79.3
0.111642,429.1,199.0,879.4,129.4,2325.0,76.6,430.2,894.4,2307.5,135.6,78.9
0.113642,425.3,187.7,883.3,160.8,2317.8,85.9,426.2,898.9,2302.4,135,78.4
0.115642,419.9,174.2,895.9,213.0,2310.0,89.4,421.7,903.9,2297.7,134.3,78
0.117642,413.4,161.1,918.5,291.2,2303.1,87.2,416.5,908.9,2293.7,133.6,77.6
0.119642,405.8,147.5,942.1,377.9,2297.9,83.0,410.7,913.9,2290.5,132.8,77.3
0.121642,397.7,134.6,955.7,420.4,2295.3,78.6,404.4,918.5,2288.1,132.1,77.1
0.123642,390.8,121.9,958.3,378.4,2294.1,76.2,397.6,922.6,2286.7,131.3,76.9
0.125642,387.4,110.4,951.9,294.0,2291.9,80.5,390.5,926,2286.1,130.5,76.7
0.127642,386.8,104.4,937.7,215.2,2287.3,93.1,383.1,928.7,2286.5,129.8,76.5
0.129642,386.2,105.8,920.1,151.5,2280.9,110.4,375.6,930.5,2287.5,129,76.1
0.131642,383.5,116.6,904.3,107.6,2272.3,133.8,368.1,931.6,2289.3,128.2,75.7
0.133642,376.4,140.8,892.3,83.7,2257.6,169.0,360.8,932.1,2291.5,127.5,75.2
0.135642,364.5,176.7,885.1,72.9,2237.2,206.9,353.8,931.9,2294.1,126.8,74.5
0.137642,352.6,214.9,885.0,67.7,2228.3,226.4,347.4,931.4,2296.8,126.1,73.7
0.139642,344.7,248.4,894.4,62.7,2244.4,227.4,341.7,930.5,2299.5,125.4,72.7
0.141642,341.5,277.1,914.9,55.4,2281.3,218.8,336.8,929.5,2302,124.8,71.8
0.143642,340.0,309.9,940.5,47.1,2323.2,204.6,332.8,928.6,2304.1,124.1,70.8
0.145642,335.0,362.1,959.2,41.7,2352.1,194.0,329.9,927.8,2305.7,123.5,69.9
0.147642,319.5,441.7,967.8,40.2,2365.8,190.6,328.2,927.3,2306.7,123,69.1
0.149642,284.6,539.4,971.1,41.5,2369.5,185.8,327.6,927.2,2307,122.5,68.5
