time,f1,b1,f2,b2,f3,b3,f1p,f2p,f3p,f0,intensity
0.025200,331.2,112.9,1729.0,284.1,2309.9,318.0,337.8,1741.3,2226.6,171.6,81.2
0.027200,336.7,122.3,1731.2,241.9,2283.4,394.9,338.8,1742.1,2226.7,171.3,81.9
0.029200,342.1,124.2,1737.2,233.2,2241.7,415.1,340.5,1743.4,2226.9,170.9,82.5
0.031200,346.7,119.4,1743.7,223.2,2214.2,376.2,342.9,1745.1,2227.3,170.5,82.9
0.033200,350.9,111.8,1750.9,200.0,2205.1,326.0,345.8,1747.4,2227.7,170,83
0.035200,354.8,104.1,1757.7,170.0,2204.4,295.6,349.3,1750,2228.2,169.6,83
0.037200,357.8,96.8,1761.8,143.0,2203.7,292.4,353.3,1753.1,2228.9,169.2,82.9
0.039200,359.7,90.6,1763.2,124.1,2199.8,310.4,357.6,1756.6,2229.6,168.7,82.7
0.041200,361.7,86.5,1763.4,115.7,2197.1,322.7,362.3,1760.4,2230.5,168.2,82.5
0.043200,365.6,85.4,1763.2,118.1,2203.9,297.3,367.2,1764.6,2231.5,167.7,82.2
0.045200,371.2,86.2,1762.8,131.1,2214.1,253.4,372.3,1769,2232.5,167.3,81.9
0.047200,377.2,86.3,1764.2,151.4,2219.7,225.2,377.4,1773.6,2233.8,166.8,81.7
0.049200,382.5,85.4,1771.9,174.4,2221.2,223.0,382.5,1778.3,2235.1,166.3,81.5
0.051200,386.8,84.8,1788.4,194.3,2221.3,245.8,387.4,1783.3,2236.5,165.8,81.4
0.053200,389.9,84.6,1807.1,203.9,2224.1,282.5,392.2,1788.2,2238.1,165.4,81.3
0.055200,392.4,84.0,1817.6,207.6,2232.8,310.2,396.7,1793.3,2239.8,164.9,81.2
0.057200,394.8,81.7,1816.4,219.0,2244.6,308.2,400.9,1798.3,2241.6,164.5,81.2
0.059200,397.8,77.1,1807.5,238.9,2255.4,278.3,404.7,1803.2,2243.5,164.1,81.1
0.061200,401.8,72.3,1801.3,251.0,2266.1,240.9,408,1808.1,2245.5,163.6,81
0.063200,406.9,70.2,1804.4,242.0,2275.8,209.9,410.9,1812.9,2247.6,163.2,81
0.065200,411.7,70.1,1810.9,216.5,2281.1,186.5,413.2,1817.5,2249.8,162.9,80.9
0.067200,415.7,70.2,1815.0,190.7,2281.0,168.3,415,1821.9,2252,162.5,80.8
0.069200,418.7,69.6,1818.0,172.2,2278.6,154.8,416.3,1826.1,2254.4,162.1,80.7
0.071200,420.2,68.3,1821.5,158.8,2277.3,148.3,417.1,1830.1,2256.8,161.8,80.6
0.073200,420.4,65.5,1825.5,148.2,2278.8,152.8,417.4,1833.9,2259.2,161.5,80.5
0.075200,420.4,62.1,1829.5,138.7,2282.3,169.9,417.2,1837.4,2261.7,161.2,80.5
0.077200,420.4,60.2,1834.4,126.9,2283.5,191.0,416.5,1840.7,2264.2,160.9,80.4
0.079200,420.2,60.7,1841.4,111.7,2278.0,198.4,415.4,1843.8,2266.7,160.7,80.3
0.081200,419.3,62.4,1849.0,99.2,2265.1,192.1,414,1846.6,2269.2,160.5,80.2
0.083200,417.1,64.2,1854.3,93.5,2249.4,185.3,412.3,1849.2,2271.8,160.2,80.2
0.085200,413.7,65.5,1856.0,91.7,2236.4,181.7,410.3,1851.6,2274.3,160,80.1
0.087200,410.2,66.7,1855.7,90.5,2227.4,181.9,408.1,1853.8,2276.8,159.9,80.1
0.089200,406.8,67.7,1855.2,89.0,2222.1,186.4,405.8,1855.8,2279.2,159.7,80
0.091200,403.5,68.2,1855.6,86.7,2222.1,192.0,403.4,1857.7,2281.7,159.5,80
0.093200,400.4,67.7,1858.8,85.8,2231.0,204.3,401,1859.5,2284.1,159.4,80.1
0.095200,397.7,67.7,1865.4,85.7,2251.9,223.3,398.6,1861.1,2286.4,159.2,80.1
0.097200,395.5,69.2,1871.2,83.2,2281.1,237.2,396.3,1862.6,2288.7,159.1,80.1
0.099200,393.3,71.3,1872.6,79.2,2313.8,246.8,394.1,1864.1,2290.9,159,80.2
0.101200,390.3,73.7,1870.3,75.6,2343.4,252.2,392,1865.5,2293.1,158.9,80.2
0.103200,386.8,75.7,1867.4,73.2,2358.6,247.0,390.2,1866.9,2295.2,158.8,80.3
0.105200,384.0,77.3,1866.2,71.2,2355.7,228.3,388.5,1868.2,2297.2,158.7,80.3
0.107200,382.7,79.7,1866.9,67.9,2343.1,201.6,387.2,1869.4,2299.1,158.6,80.3
0.109200,382.1,82.9,1868.9,64.0,2329.2,178.5,386,1870.7,2300.9,158.5,80.4
0.111200,381.7,85.7,1871.4,61.3,2316.0,166.1,385.2,1871.8,2302.6,158.4,80.4
0.113200,381.6,88.6,1873.5,60.8,2303.4,163.0,384.6,1872.9,2304.2,158.3,80.4
0.115200,381.4,90.7,1874.6,61.6,2294.7,163.3,384.3,1873.9,2305.6,158.2,80.5
0.117200,381.6,91.3,1875.4,61.8,2293.3,160.9,384.3,1874.8,2306.8,158.1,80.5
0.119200,382.8,91.3,1876.6,61.1,2298.1,154.6,384.6,1875.6,2307.9,158,80.5
0.121200,384.2,91.5,1877.4,59.9,2303.1,148.4,385.1,1876.2,2308.8,157.9,80.4
0.123200,385.7,91.7,1877.2,58.2,2304.1,145.5,385.8,1876.6,2309.5,157.8,80.4
0.125200,388.0,92.9,1875.6,56.3,2301.6,147.2,386.8,1876.7,2310,157.6,80.4
0.127200,390.8,95.3,1873.2,54.8,2297.8,152.0,388,1876.6,2310.2,157.5,80.3
0.129200,393.3,98.5,1871.1,53.1,2294.1,154.8,389.4,1876.2,2310.1,157.4,80.3
0.131200,396.2,102.9,1870.0,51.0,2291.4,153.4,391,1875.5,2309.8,157.2,80.2
0.133200,399.4,108.4,1869.2,49.3,2290.9,148.6,392.7,1874.3,2309.2,157,80.2
0.135200,401.4,111.4,1868.3,48.4,2293.6,141.1,394.6,1872.8,2308.2,156.9,80.1
0.137200,401.8,109.9,1867.9,48.2,2298.6,131.9,396.6,1870.8,2307,156.7,80.1
0.139200,401.6,105.9,1868.3,48.9,2303.8,122.8,398.6,1868.4,2305.4,156.5,80
0.141200,402.0,102.5,1868.7,49.9,2307.4,114.2,400.8,1865.6,2303.5,156.3,80
0.143200,403.9,102.0,1868.1,50.9,2308.6,106.1,403.1,1862.2,2301.3,156.1,79.9
0.145200,406.6,103.5,1864.8,53.2,2308.9,101.1,405.4,1858.4,2298.7,155.8,79.9
0.147200,407.8,102.9,1857.8,57.2,2308.1,100.3,407.8,1854.1,2295.9,155.6,79.9
0.149200,408.0,98.6,1848.7,60.4,2304.0,102.4,410.1,1849.4,2292.7,155.4,79.9
0.151200,409.2,93.5,1840.4,60.7,2295.7,105.2,412.5,1844.3,2289.3,155.1,79.9
0.153200,411.7,89.9,1834.9,58.4,2286.5,107.3,414.9,1838.9,2285.7,154.9,79.9
0.155200,414.6,87.5,1832.5,55.7,2279.7,110.2,417.3,1833.1,2281.9,154.6,79.9
0.157200,417.5,85.7,1830.5,54.5,2276.4,117.4,419.7,1827,2277.9,154.4,80
0.159200,419.9,83.2,1826.5,55.6,2276.2,130.6,422,1820.8,2273.7,154.1,80
0.161200,421.5,78.6,1820.0,58.9,2277.1,146.8,424.2,1814.4,2269.5,153.9,80.1
0.163200,423.5,72.9,1811.8,64.3,2274.7,159.7,426.4,1807.9,2265.3,153.6,80.1
0.165200,425.8,67.6,1803.3,72.1,2267.2,166.0,428.5,1801.5,2261.1,153.4,80.2
0.167200,427.4,62.9,1796.2,81.1,2259.2,169.0,430.6,1795.2,2256.9,153.2,80.3
0.169200,428.8,58.6,1789.8,90.5,2253.2,171.4,432.4,1789.1,2252.9,152.9,80.4
0.171200,431.1,55.4,1781.2,98.8,2247.2,167.5,434.2,1783.2,2249.1,152.7,80.5
0.173200,433.9,52.9,1770.9,101.6,2240.8,152.9,435.8,1777.7,2245.5,152.5,80.7
0.175200,436.5,50.0,1763.3,99.1,2236.0,135.5,437.3,1772.7,2242.2,152.3,80.9
0.177200,438.8,46.8,1760.5,96.5,2234.7,124.3,438.6,1768.1,2239.3,152.1,81.1
0.179200,440.6,43.5,1761.9,96.3,2237.4,121.3,439.7,1764.2,2236.7,151.9,81.3
0.181200,442.1,40.3,1765.3,98.1,2240.6,123.2,440.7,1760.8,2234.5,151.7,81.6
0.183200,443.8,37.3,1766.2,100.9,2239.0,125.6,441.4,1758.2,2232.8,151.5,81.8
0.185200,445.6,34.7,1762.3,104.3,2231.2,127.2,441.9,1756.3,2231.5,151.4,82
0.187200,446.8,32.0,1755.6,106.7,2222.8,131.2,442.3,1755.1,2230.8,151.2,82.2
0.189200,447.5,28.6,1749.0,107.4,2219.1,142.7,442.4,1754.7,2230.5,151.1,82.4
