time,f1,b1,f2,b2,f3,b3,f1p,f2p,f3p,f0,intensity
0.025819,468.3,137.7,808.1,595.6,2254.1,66.8,482,869.2,2253.1,152.9,71.6
0.027819,471.9,118.1,849.1,387.0,2251.2,52.9,482.6,870.9,2252.9,152.9,71.9
0.029819,479.1,111.8,876.2,281.7,2251.4,52.5,483.6,873.6,2252.7,152.8,72.1
0.031819,486.1,112.4,889.8,218.6,2251.1,55.4,485.1,877.2,2252.4,152.8,72.3
0.033819,491.2,113.0,897.5,176.6,2250.8,59.2,486.9,881.7,2252.1,152.8,72.5
0.035819,494.7,112.0,904.0,146.5,2252.1,65.6,489.2,886.9,2251.8,152.8,72.7
0.037819,498.0,110.4,910.6,125.7,2256.1,77.0,492,892.6,2251.6,152.7,72.8
0.039819,501.6,110.3,916.7,112.8,2261.0,92.4,495.1,898.7,2251.4,152.7,72.9
0.041819,504.4,113.5,920.6,106.6,2261.6,106.5,498.7,905.1,2251.4,152.7,72.9
0.043819,505.5,120.0,921.7,107.7,2255.6,114.2,502.7,911.4,2251.6,152.7,72.8
0.045819,506.3,128.8,921.8,118.0,2247.9,114.5,507,917.7,2251.9,152.7,72.7
0.047819,509.5,140.1,924.0,139.4,2242.1,113.0,511.5,923.7,2252.3,152.7,72.6
0.049819,516.6,153.5,929.8,174.5,2237.6,113.8,516.3,929.5,2252.9,152.7,72.5
0.051819,526.0,164.0,936.7,220.9,2236.3,117.6,521.2,934.8,2253.6,152.7,72.4
0.053819,534.0,168.7,940.5,264.2,2242.9,123.5,526,939.7,2254.4,152.7,72.3
0.055819,539.0,170.4,940.6,291.4,2257.0,127.7,530.7,944.2,2255.2,152.7,72.2
0.057819,541.8,169.8,940.3,306.4,2269.3,126.8,535.2,948.3,2256,152.7,72.2
0.059819,542.7,167.5,940.6,311.4,2271.6,123.7,539.4,951.9,2256.6,152.7,72.2
0.061819,541.2,165.3,942.2,303.5,2265.3,122.2,543,955.3,2256.9,152.7,72.2
0.063819,538.1,163.2,946.5,290.1,2257.0,121.4,546.1,958.4,2257,152.7,72.2
0.065819,535.7,160.6,953.1,279.9,2253.0,118.5,548.6,961.4,2256.8,152.7,72.2
0.067819,536.1,159.7,960.8,276.8,2255.7,112.6,550.4,964.3,2256.1,152.8,72.2
0.069819,539.8,161.4,968.8,282.9,2261.3,104.8,551.4,967.2,2255,152.8,72.2
0.071819,545.3,164.3,976.1,294.5,2264.2,95.4,551.8,970.2,2253.4,152.8,72.2
0.073819,550.4,167.3,981.3,302.9,2260.9,85.9,551.5,973.4,2251.3,152.8,72.3
0.075819,553.2,168.3,983.4,305.7,2251.8,79.0,550.5,976.7,2248.7,152.9,72.4
0.077819,553.2,164.3,982.2,305.8,2241.3,75.1,549.1,980.2,2245.8,152.9,72.4
0.079819,550.9,155.0,979.4,293.9,2233.7,74.5,547.2,983.9,2242.5,152.9,72.4
0.081819,546.4,139.8,979.1,254.1,2228.4,80.1,545.1,987.6,2238.9,152.9,72.5
0.083819,542.0,120.3,985.1,197.7,2223.1,93.6,542.8,991.4,2235.2,153,72.5
0.085819,540.2,103.5,994.6,151.1,2218.8,109.2,540.7,995,2231.4,153,72.5
0.087819,540.4,93.3,1003.6,123.5,2218.5,116.9,538.6,998.5,2227.7,153,72.6
0.089819,541.0,88.2,1010.6,112.4,2220.3,115.8,537,1001.7,2224.3,153,72.6
0.091819,541.6,86.5,1015.0,113.2,2221.2,113.0,535.8,1004.3,2221.1,153.1,72.7
0.093819,541.9,88.8,1016.7,122.9,2222.3,114.0,535.1,1006.4,2218.3,153.1,72.8
0.095819,542.0,95.0,1016.0,139.8,2224.1,119.1,535,1007.8,2216.1,153.1,72.9
0.097819,542.1,103.3,1013.8,160.9,2225.8,123.6,535.5,1008.3,2214.5,153.1,73
0.099819,542.9,112.0,1010.8,180.1,2225.8,122.9,536.5,1007.9,2213.5,153.1,73
0.101819,543.5,118.7,1007.2,193.6,2222.2,118.0,538.1,1006.5,2213.1,153.2,73.1
0.103819,543.9,123.3,1003.7,206.9,2218.0,112.7,540.1,1004,2213.3,153.2,73.1
0.105819,543.7,126.0,999.4,218.2,2216.9,107.9,542.3,1000.6,2214.2,153.2,73.2
0.107819,541.6,125.0,992.2,216.7,2218.5,101.4,544.5,996.1,2215.6,153.2,73.2
0.109819,538.1,120.6,981.4,205.2,2221.4,91.8,546.6,990.7,2217.5,153.2,73.2
0.111819,535.8,117.2,968.0,194.9,2222.9,81.5,548.4,984.5,2219.7,153.2,73.1
0.113819,536.0,118.7,956.1,190.1,2220.8,74.9,549.6,977.6,2222.2,153.2,73.1
0.115819,537.7,122.8,951.1,188.8,2215.7,73.5,550.1,970,2224.7,153.2,73.1
0.117819,539.1,125.1,953.6,186.4,2212.0,76.0,549.6,962,2227.3,153.2,73.1
0.119819,539.3,125.8,957.9,182.9,2213.3,80.4,548,953.8,2229.7,153.2,73.1
0.121819,538.5,127.9,958.2,185.5,2219.7,86.4,545.2,945.4,2231.9,153.2,73.2
0.123819,537.5,133.0,950.9,197.5,2228.6,92.5,541.1,937.1,2233.8,153.1,73.2
0.125819,536.6,140.1,936.3,207.1,2235.2,95.1,535.7,928.9,2235.2,153.1,73.3
0.127819,533.7,144.4,920.5,197.9,2235.5,94.0,529.2,921.1,2236.2,153.1,73.4
0.129819,528.8,141.8,911.1,176.0,2232.5,91.8,521.5,913.7,2236.8,153,73.4
0.131819,523.5,135.1,908.5,158.0,2234.1,90.1,512.9,906.9,2236.8,153,73.5
0.133819,517.4,127.8,908.8,148.6,2243.6,90.1,503.6,900.6,2236.5,152.9,73.5
0.135819,509.4,120.0,907.7,145.9,2254.2,91.8,493.8,894.9,2235.8,152.9,73.4
0.137819,500.3,112.5,903.6,147.7,2257.1,91.8,483.9,889.9,2234.7,152.8,73.3
0.139819,490.4,106.2,897.7,151.9,2251.9,87.9,474.1,885.6,2233.5,152.8,73.2
0.141819,479.2,99.7,891.1,157.9,2244.5,84.6,464.9,881.9,2232.2,152.7,72.9
0.143819,467.3,92.6,883.4,168.1,2238.3,87.6,456.4,878.9,2230.8,152.6,72.6
0.145819,455.7,87.4,874.7,183.1,2233.3,97.4,448.9,876.5,2229.5,152.6,72.3
0.147819,443.2,84.5,867.2,196.0,2225.9,102.7,442.9,874.6,2228.4,152.5,71.8
0.149819,428.1,82.4,862.1,199.0,2215.0,88.2,438.4,873.3,2227.6,152.4,71.3
0.151819,411.7,83.1,859.2,197.9,2208.0,65.8,435.6,872.6,2227,152.4,70.6
0.153819,395.9,93.3,857.9,211.7,2207.9,52.7,434.7,872.3,2226.9,152.3,70
