time,f1,b1,f2,b2,f3,b3,f1p,f2p,f3p,f0,intensity
0.025685,455.3,211.4,1254.1,121.0,2341.7,81.3,437,1256,2382.5,137.1,74.1
0.027685,451.6,178.5,1251.0,134.4,2351.8,82.6,436.6,1252.9,2379.8,136.8,74.7
0.029685,441.4,141.5,1244.7,158.2,2364.2,81.2,435.9,1247.7,2375.5,136.4,75.3
0.031685,432.3,115.5,1237.4,193.2,2374.4,79.5,434.9,1240.5,2369.6,136,75.9
0.033685,426.8,102.3,1228.9,236.1,2380.8,86.3,433.8,1231.6,2362.2,135.6,76.3
0.035685,423.8,97.1,1220.4,284.9,2383.9,115.2,432.4,1221,2353.7,135.1,76.7
0.037685,422.2,96.6,1214.2,329.6,2382.5,170.6,430.9,1208.9,2344.3,134.6,77
0.039685,421.2,98.4,1202.5,361.0,2371.9,244.5,429.4,1195.5,2334.1,134.1,77.2
0.041685,420.7,101.3,1182.4,370.0,2345.0,301.8,427.8,1181.1,2323.6,133.6,77.3
0.043685,420.5,105.5,1161.9,366.6,2312.1,304.9,426.2,1166,2312.9,133,77.3
0.045685,420.4,112.2,1146.7,363.3,2291.7,282.8,424.6,1150.2,2302.3,132.5,77.3
0.047685,420.3,121.6,1130.5,355.3,2274.6,264.6,423.1,1134.1,2292,131.9,77.2
0.049685,420.7,135.5,1115.2,352.0,2256.8,247.5,421.6,1117.9,2282.4,131.3,77.1
0.051685,421.4,154.6,1106.8,375.0,2247.5,233.4,420.3,1101.7,2273.6,130.6,76.9
0.053685,422.2,177.3,1098.3,411.6,2247.6,226.0,418.9,1085.9,2265.7,130,76.7
0.055685,422.2,199.7,1082.5,416.0,2252.7,220.5,417.7,1070.5,2259,129.4,76.6
0.057685,419.8,217.3,1063.1,370.2,2257.6,211.8,416.5,1055.7,2253.4,128.7,76.4
0.059685,416.0,221.5,1047.3,316.0,2256.2,202.1,415.3,1041.6,2249,128.1,76.2
0.061685,412.9,216.0,1030.8,272.2,2248.8,192.5,414,1028.2,2245.8,127.4,76
0.063685,411.1,211.3,1012.6,233.7,2240.8,184.1,412.7,1015.8,2243.8,126.8,75.8
0.065685,410.4,215.8,995.5,199.5,2236.7,181.5,411.3,1004.2,2242.8,126.1,75.6
0.067685,410.7,228.5,983.2,179.1,2238.4,186.6,409.7,993.4,2242.9,125.5,75.4
0.069685,411.7,240.7,973.0,165.7,2246.6,186.2,408,983.6,2243.8,124.9,75.1
0.071685,412.5,252.5,964.3,150.0,2260.0,172.5,406.2,974.5,2245.3,124.3,74.9
0.073685,411.9,272.9,958.0,131.3,2271.9,152.7,404.1,966.2,2247.5,123.7,74.7
0.075685,408.7,295.2,954.0,116.1,2272.2,139.9,402,958.6,2250,123.2,74.7
0.077685,403.3,312.9,949.8,107.0,2266.6,136.1,399.7,951.7,2252.8,122.6,74.7
0.079685,396.8,327.8,944.9,101.6,2262.2,136.6,397.4,945.2,2255.8,122.1,74.8
0.081685,388.9,349.8,940.1,101.5,2257.9,139.1,395.1,939.3,2258.7,121.6,74.9
0.083685,383.1,374.0,935.6,113.4,2251.7,144.2,392.9,933.7,2261.5,121.2,75.1
0.085685,382.4,385.3,929.5,135.9,2247.5,151.9,391,928.4,2264.2,120.7,75.3
0.087685,384.6,380.1,922.2,155.8,2250.1,161.0,389.4,923.4,2266.7,120.3,75.5
0.089685,386.5,362.0,918.4,160.1,2258.8,170.9,388.3,918.6,2269,119.9,75.6
0.091685,388.9,331.2,921.1,154.9,2269.5,183.0,387.7,913.9,2271.1,119.6,75.7
0.093685,392.2,296.2,927.1,149.9,2275.5,192.7,387.9,909.5,2273,119.2,75.7
0.095685,394.9,272.2,929.6,149.6,2275.7,194.0,388.9,905.2,2274.9,118.9,75.7
0.097685,395.9,270.6,926.0,156.8,2273.9,193.0,390.8,901.1,2276.8,118.6,75.6
0.099685,395.3,290.9,916.7,177.6,2269.5,201.1,393.8,897.3,2278.7,118.3,75.5
0.101685,395.0,324.5,900.4,217.6,2260.9,225.6,397.8,893.6,2280.8,118.1,75.4
0.103685,398.1,355.1,875.9,268.8,2253.5,264.2,402.9,890.3,2283.1,117.8,75.3
0.105685,403.4,370.6,855.4,300.6,2257.8,300.3,409,887.4,2285.7,117.6,75.2
0.107685,410.4,373.2,851.1,310.5,2276.7,336.3,416.2,884.9,2288.7,117.4,75
0.109685,422.6,366.4,865.0,311.7,2307.1,378.6,424.4,882.8,2292.1,117.2,74.9
0.111685,438.5,352.8,881.5,307.4,2339.9,416.6,433.4,881.3,2295.9,117,74.7
0.113685,450.2,339.1,885.3,296.4,2360.0,438.2,443.1,880.4,2300.2,116.8,74.5
0.115685,456.4,325.6,878.7,277.5,2362.9,441.8,453.3,880.2,2304.8,116.7,74.2
0.117685,459.7,305.0,868.1,253.6,2345.5,421.2,463.9,880.6,2309.7,116.5,73.9
0.119685,464.8,274.5,862.9,238.8,2321.8,403.8,474.5,881.8,2314.8,116.4,73.6
0.121685,474.2,242.6,866.7,239.4,2304.5,428.3,485,883.6,2320.1,116.2,73.3
0.123685,489.0,220.7,879.7,258.2,2300.8,503.2,495.1,886.2,2325.3,116.1,73.1
0.125685,510.0,201.4,902.8,290.9,2311.6,604.6,504.5,889.5,2330.4,115.9,72.8
0.127685,528.7,177.9,924.5,304.7,2321.4,632.8,513.1,893.5,2335.2,115.8,72.6
0.129685,541.5,157.5,932.0,286.4,2324.5,582.6,520.7,898.1,2339.6,115.7,72.4
0.131685,548.6,145.1,929.0,249.1,2329.0,498.9,526.9,903.3,2343.3,115.5,72.1
0.133685,551.9,139.0,926.5,209.6,2332.3,395.1,531.7,909,2346.3,115.4,71.7
0.135685,548.8,141.1,926.9,183.3,2320.2,317.3,535,915.1,2348.5,115.3,71.2
0.137685,535.0,156.1,925.3,174.4,2303.7,279.4,536.7,921.7,2349.9,115.1,70.6
0.139685,513.2,186.7,919.3,184.0,2299.9,273.9,536.8,928.4,2350.2,115,69.9
0.141685,495.1,225.4,916.7,197.7,2316.3,295.9,535.2,935.4,2349.6,114.9,69.4
0.143685,492.9,243.7,930.3,189.6,2349.0,331.3,532.2,942.4,2348,114.8,69
0.145685,503.3,232.0,948.1,163.1,2382.8,359.2,527.7,949.4,2345.5,114.6,68.8
0.147685,514.4,207.1,956.1,137.1,2400.8,368.5,522.1,956.3,2342.2,114.5,68.6
0.149685,517.2,188.3,954.8,119.4,2396.6,357.9,515.4,963,2338.2,114.4,68.3
0.151685,512.1,181.1,951.4,112.5,2376.1,339.7,508,969.4,2333.7,114.3,68
0.153685,507.0,177.7,953.8,113.5,2352.0,330.3,500.1,975.5,2328.8,114.2,67.5
0.155685,509.5,171.4,965.9,115.3,2333.5,336.6,491.9,981.1,2323.6,114.1,67
0.157685,516.5,166.4,978.7,108.1,2326.7,334.2,483.9,986.2,2318.5,114,66.3
0.159685,518.7,170.9,986.2,96.4,2326.5,305.7,476.2,990.7,2313.6,113.8,65.6
0.161685,510.6,187.3,991.7,85.9,2326.4,265.3,469.2,994.7,2309,113.7,64.8
0.163685,489.0,218.6,999.2,77.8,2324.0,231.5,463.1,998,2305,113.6,64
0.165685,457.3,260.4,1008.8,76.0,2314.8,220.1,458.1,1000.5,2301.8,113.6,63.1
0.167685,425.8,296.8,1017.9,85.6,2290.3,232.4,454.4,1002.4,2299.3,113.5,62.4
0.169685,411.0,319.3,1021.6,114.0,2249.6,261.8,452.1,1003.5,2297.8,113.4,61.8
0.171685,416.6,354.4,1016.2,166.4,2210.7,304.5,451.4,1003.9,2297.3,113.3,61.5
