time,f1,b1,f2,b2,f3,b3,f1p,f2p,f3p,f0,intensity
0.025639,440.4,149.5,924.8,222.2,2390.6,23.6,470.9,988.4,2393,127.7,79.6
0.027639,451.6,155.5,940.6,230.4,2391.4,22.5,471.6,989.5,2393.6,127.7,79.8
0.029639,458.2,150.2,950.8,229.5,2391.9,22.8,472.7,991.4,2394.5,127.8,80
0.031639,464.1,139.2,959.9,234.6,2393.8,24.3,474.2,994,2395.7,127.9,80.1
0.033639,471.7,126.9,974.6,257.3,2396.9,26.8,476.1,997.3,2397.3,127.9,80.2
0.035639,477.5,114.0,990.9,281.9,2399.3,28.7,478.4,1001.2,2399.2,128,80.3
0.037639,481.1,102.3,1004.2,292.6,2401.0,29.0,481.2,1005.7,2401.4,128.1,80.4
0.039639,484.3,94.8,1017.9,292.7,2403.9,28.8,484.2,1010.7,2403.8,128.2,80.5
0.041639,489.0,93.7,1037.3,292.1,2408.5,28.8,487.6,1016.2,2406.5,128.2,80.6
0.043639,494.4,98.0,1055.0,290.1,2412.9,28.0,491.4,1022,2409.4,128.3,80.6
0.045639,499.3,104.9,1064.5,285.3,2415.3,26.0,495.4,1028,2412.4,128.4,80.7
0.047639,504.4,115.5,1073.1,286.8,2416.8,23.3,499.6,1034.3,2415.6,128.5,80.7
0.049639,511.7,132.7,1088.4,299.3,2419.0,21.3,504.1,1040.7,2418.9,128.6,80.7
0.051639,521.1,152.4,1103.2,308.2,2421.8,20.7,508.8,1047.1,2422.2,128.6,80.7
0.053639,529.0,167.5,1105.8,300.7,2424.8,21.2,513.6,1053.4,2425.6,128.7,80.6
0.055639,533.2,179.2,1100.8,289.3,2428.6,22.7,518.6,1059.6,2429,128.8,80.6
0.057639,537.4,195.2,1097.2,286.8,2434.2,24.9,523.6,1065.6,2432.4,128.9,80.5
0.059639,542.9,210.4,1094.6,285.9,2440.1,26.1,528.7,1071.2,2435.8,129,80.5
0.061639,547.4,216.7,1090.2,274.6,2443.7,25.8,533.8,1076.5,2439.1,129.1,80.4
0.063639,549.6,219.9,1085.8,261.6,2445.5,25.5,538.9,1081.4,2442.3,129.1,80.3
0.065639,551.5,229.0,1083.4,261.1,2447.2,26.7,543.9,1085.8,2445.4,129.2,80.2
0.067639,554.8,239.1,1082.2,269.6,2449.0,27.9,548.8,1089.7,2448.4,129.3,80.2
0.069639,559.1,242.9,1080.8,274.0,2450.8,27.5,553.5,1093.1,2451.3,129.4,80.1
0.071639,563.0,245.5,1079.1,275.7,2452.8,26.8,558.1,1095.8,2454,129.5,80
0.073639,566.5,251.3,1077.6,282.6,2454.9,27.9,562.5,1098,2456.6,129.6,80
0.075639,570.0,252.4,1075.9,287.2,2457.2,29.5,566.7,1099.6,2459.2,129.7,80
0.077639,572.9,246.4,1073.5,280.5,2459.2,29.4,570.6,1100.5,2461.6,129.8,80
0.079639,575.1,243.5,1070.9,273.2,2460.4,28.9,574.2,1100.9,2463.9,129.9,80
0.081639,578.1,247.5,1069.0,276.9,2461.3,29.8,577.5,1100.7,2466.1,130,80
0.083639,581.1,247.6,1067.8,282.4,2462.8,31.2,580.5,1100,2468.2,130.1,80
0.085639,582.1,238.5,1066.8,277.4,2465.7,30.8,583.1,1098.8,2470.3,130.2,80
0.087639,580.9,226.9,1066.2,268.5,2469.7,29.7,585.3,1097,2472.4,130.3,80
0.089639,579.6,217.5,1066.7,267.3,2473.6,30.1,587.1,1094.9,2474.4,130.4,79.9
0.091639,578.8,206.7,1067.3,269.4,2477.2,31.2,588.6,1092.3,2476.5,130.5,79.9
0.093639,576.9,195.0,1066.6,268.3,2479.9,31.2,589.6,1089.4,2478.5,130.6,79.9
0.095639,573.6,186.5,1066.7,275.5,2481.5,30.8,590.2,1086.2,2480.6,130.7,79.8
0.097639,571.3,181.5,1069.3,301.3,2481.8,31.6,590.3,1082.8,2482.7,130.8,79.8
0.099639,571.0,175.8,1072.0,334.3,2482.3,32.6,590,1079.1,2484.9,130.9,79.8
0.101639,571.3,169.8,1073.4,362.6,2484.8,33.1,589.3,1075.3,2487.2,131,79.8
0.103639,571.0,164.4,1077.2,393.0,2490.0,34.1,588.1,1071.3,2489.5,131.1,79.8
0.105639,570.9,157.0,1084.8,428.1,2496.0,35.8,586.5,1067.2,2491.9,131.2,79.8
0.107639,571.3,148.9,1090.8,456.4,2500.6,37.5,584.5,1063,2494.3,131.3,79.8
0.109639,572.8,145.7,1096.1,486.8,2503.3,38.7,582.1,1058.8,2496.8,131.4,79.8
0.111639,575.5,149.1,1107.3,537.6,2505.2,40.1,579.2,1054.5,2499.3,131.5,79.8
0.113639,577.2,152.5,1114.9,575.7,2506.4,41.9,575.9,1050.2,2501.8,131.5,79.8
0.115639,576.4,153.4,1106.1,572.5,2507.1,43.3,572.2,1045.9,2504.3,131.6,79.9
0.117639,574.3,155.6,1089.0,548.4,2509.0,44.4,568.2,1041.6,2506.8,131.7,80
0.119639,572.6,160.6,1076.2,532.6,2513.3,46.3,563.8,1037.2,2509.2,131.7,80.1
0.121639,571.4,165.1,1065.5,514.9,2518.4,47.7,559.1,1032.7,2511.4,131.8,80.2
0.123639,568.6,167.9,1048.6,474.2,2522.3,47.5,554,1028.2,2513.5,131.8,80.2
0.125639,563.9,172.1,1028.9,425.1,2526.0,46.6,548.6,1023.6,2515.4,131.8,80.3
0.127639,558.6,177.5,1012.1,385.8,2531.2,46.1,543,1018.9,2517,131.8,80.4
0.129639,552.2,178.3,997.7,345.0,2463.9,1729.5,537,1014.1,2518.4,131.8,80.4
0.131639,544.8,172.7,986.4,298.3,2467.3,1664.1,530.9,1009.1,2519.3,131.8,80.4
0.133639,536.5,164.7,977.5,254.1,2534.3,35.6,524.5,1003.9,2519.9,131.8,80.4
0.135639,528.3,158.0,970.4,224.3,2531.6,32.9,517.9,998.5,2520,131.7,80.4
0.137639,520.7,153.0,964.2,206.9,2528.3,31.9,511.2,992.9,2519.6,131.7,80.3
0.139639,512.1,148.2,957.7,193.7,2525.1,31.3,504.3,987.1,2518.6,131.6,80.3
0.141639,502.2,143.3,951.7,184.1,2522.1,31.1,497.3,981,2517,131.6,80.3
0.143639,492.7,137.6,946.8,180.2,2518.4,31.4,490.1,974.7,2514.8,131.5,80.2
0.145639,484.9,132.1,942.6,180.4,2513.1,30.6,482.9,968.2,2512,131.4,80.1
0.147639,477.5,129.9,939.1,184.2,2507.1,27.9,475.7,961.5,2508.4,131.3,80
0.149639,469.0,131.1,937.5,193.4,2500.8,24.7,468.4,954.6,2504.1,131.2,79.9
0.151639,461.4,131.8,937.1,205.3,2494.2,23.3,461.1,947.6,2499.1,131.1,79.7
0.153639,454.3,130.3,934.2,216.5,2487.5,23.1,453.8,940.5,2493.3,131,79.5
0.155639,445.9,130.5,927.7,227.5,2482.6,23.5,446.5,933.5,2486.9,130.8,79.4
0.157639,436.0,133.6,921.3,239.2,2480.1,25.1,439.3,926.5,2479.7,130.7,79.2
0.159639,426.2,134.9,916.3,247.5,2477.4,28.6,432.2,919.6,2471.7,130.5,79.1
0.161639,417.3,133.8,910.5,252.8,2471.8,34.5,425.2,913,2463.1,130.4,78.9
0.163639,408.2,135.1,904.5,259.8,2462.0,43.7,418.2,906.8,2453.9,130.2,78.8
0.165639,398.6,137.0,900.8,262.6,2447.7,55.4,411.4,901,2444.1,130,78.7
0.167639,389.7,133.7,897.9,250.8,2429.9,63.1,404.8,895.9,2433.7,129.8,78.6
0.169639,382.4,126.2,893.0,229.5,2415.3,63.8,398.3,891.4,2422.8,129.6,78.6
0.171639,375.6,119.6,889.3,209.0,2403.4,64.6,392,887.7,2411.4,129.4,78.5
0.173639,370.3,116.2,889.7,196.0,2392.8,64.6,385.8,885,2399.7,129.2,78.5
0.175639,367.5,115.5,891.7,189.5,2385.1,60.6,379.9,883.4,2387.7,129,78.5
0.177639,366.0,117.5,894.0,187.7,2379.8,56.5,374.2,883,2375.5,128.7,78.4
0.179639,363.4,120.7,898.3,187.2,2373.3,56.8,368.7,884,2363.1,128.5,78.3
0.181639,359.9,121.3,904.3,182.7,2361.8,58.6,363.4,886.3,2350.7,128.2,78.3
0.183639,357.2,120.6,909.2,175.8,2345.7,54.5,358.3,890.2,2338.3,127.9,78.2
0.185639,355.6,123.8,914.8,173.3,2327.6,44.7,353.5,895.8,2325.9,127.6,78.1
0.187639,353.7,130.7,925.5,173.7,2308.2,34.4,349,903,2313.8,127.3,78
0.189639,351.2,134.8,938.6,170.2,2293.0,26.8,344.6,912,2301.9,127,77.9
0.191639,348.7,134.3,949.6,166.7,2283.6,22.2,340.6,922.8,2290.3,126.7,77.9
0.193639,346.2,132.2,958.7,176.4,2277.8,20.9,336.7,935.4,2279.1,126.3,77.8
0.195639,343.2,131.1,971.3,213.1,2271.9,22.4,333.1,949.9,2268.3,125.9,77.7
0.197639,340.6,128.9,990.7,273.0,2264.0,24.7,329.8,966.1,2258.1,125.6,77.7
0.199639,338.0,123.0,1013.8,311.0,2254.3,25.9,326.7,984.1,2248.3,125.2,77.7
0.201639,334.0,115.7,1032.9,286.3,2244.0,26.9,323.8,1003.9,2239.2,124.8,77.7
0.203639,329.3,108.9,1046.2,239.1,2233.5,29.8,321.2,1025.2,2230.7,124.3,77.8
0.205639,325.6,102.9,1055.2,210.2,2222.3,34.9,318.8,1048.1,2222.8,123.9,77.8
0.207639,323.2,100.5,1062.5,206.0,2211.6,40.0,316.6,1072.3,2215.6,123.5,77.8
0.209639,321.4,105.3,1073.3,228.3,2205.9,44.3,314.6,1097.7,2209.1,123,77.8
0.211639,319.3,112.0,1091.9,266.2,2203.5,47.9,312.8,1124.2,2203.2,122.5,77.9
0.213639,316.7,109.3,1112.0,284.2,2199.0,46.7,311.2,1151.6,2198,122.1,77.9
0.215639,313.3,100.3,1126.7,271.7,2190.7,40.7,309.8,1179.6,2193.4,121.6,77.9
0.217639,309.2,94.8,1141.9,257.9,2181.5,34.5,308.5,1208,2189.5,121.1,77.8
0.219639,305.3,94.6,1166.5,265.9,2174.7,31.1,307.4,1236.6,2186.1,120.6,77.8
0.221639,302.9,93.9,1202.2,288.0,2171.3,29.2,306.4,1265.2,2183.3,120.1,77.7
0.223639,301.7,92.5,1248.3,302.3,2170.6,27.8,305.6,1293.5,2180.9,119.6,77.6
0.225639,299.9,95.8,1306.2,292.8,2171.9,29.4,304.8,1321.2,2179.1,119.1,77.4
0.227639,297.4,104.0,1355.9,263.1,2175.2,36.4,304.2,1348.1,2177.6,118.6,77.1
0.229639,295.7,109.5,1384.8,231.1,2180.4,47.6,303.7,1374,2176.5,118.1,76.8
0.231639,294.7,108.2,1398.2,207.4,2185.6,55.9,303.3,1398.6,2175.7,117.6,76.5
0.233639,293.1,108.7,1412.1,195.7,2190.2,55.0,302.9,1421.6,2175.2,117.2,76.2
0.235639,290.9,118.7,1438.3,194.8,2194.5,49.6,302.6,1442.9,2174.9,116.7,75.9
0.237639,290.4,130.4,1465.9,190.9,2195.4,44.7,302.4,1462.2,2174.8,116.2,75.5
0.239639,293.2,130.5,1482.3,180.0,2191.3,39.6,302.2,1479.3,2174.7,115.8,75.2
0.241639,297.5,122.8,1493.7,169.0,2183.2,34.9,302.1,1494.2,2174.8,115.4,74.9
0.243639,302.7,117.4,1511.2,160.9,2172.1,32.3,301.9,1506.5,2174.9,115,74.6
0.245639,309.2,116.3,1536.2,153.7,2162.2,31.4,301.9,1516.2,2175,114.6,74.4
0.247639,313.0,115.6,1557.0,149.0,2159.4,29.8,301.8,1523.2,2175.1,114.3,74.3
0.249639,312.2,116.5,1575.4,152.8,2162.0,27.9,301.8,1527.5,2175.2,113.9,74.3
0.251639,309.6,125.5,1604.5,173.5,2168.5,28.8,301.8,1528.9,2175.2,113.6,74.5
