time,f1,b1,f2,b2,f3,b3,f1p,f2p,f3p,f0,intensity
0.025345,272.3,82.4,2123.5,107.6,2375.1,111.1,288.6,2138.5,2375.1,131.3,69.5
0.027345,280.7,65.6,2130.2,92.6,2374.6,97.7,289.5,2137.7,2375.6,131.2,71.4
0.029345,287.4,54.1,2133.7,84.1,2376.1,90.2,291,2136.3,2376.4,131.1,73.1
0.031345,292.8,47.0,2136.3,84.0,2380.8,90.6,293,2134.4,2377.4,131,74.4
0.033345,297.5,43.8,2138.0,92.0,2388.0,96.6,295.5,2132.1,2378.8,130.8,75.4
0.035345,301.3,43.1,2137.0,99.0,2392.5,97.6,298.6,2129.3,2380.5,130.7,76.1
0.037345,304.6,44.2,2131.5,95.1,2391.3,87.6,302,2126.3,2382.5,130.6,76.7
0.039345,308.0,49.2,2121.5,81.0,2385.1,71.3,305.9,2123.1,2384.7,130.5,77.1
0.041345,312.5,60.3,2111.1,65.7,2377.4,58.1,310.1,2119.8,2387.2,130.4,77.3
0.043345,317.9,73.6,2106.3,56.0,2373.5,52.9,314.5,2116.4,2390,130.3,77.5
0.045345,322.6,81.1,2106.4,52.8,2375.7,54.6,319.2,2113.2,2393,130.1,77.8
0.047345,326.4,86.3,2108.2,53.4,2382.5,58.9,324,2110.1,2396.3,130,78
0.049345,330.8,94.5,2109.5,55.0,2390.9,61.2,328.9,2107.3,2399.8,129.9,78.2
0.051345,336.1,99.6,2109.8,54.0,2397.8,58.9,333.9,2104.8,2403.4,129.8,78.4
0.053345,341.4,95.9,2108.7,49.7,2402.9,53.9,338.7,2102.8,2407.3,129.6,78.5
0.055345,346.4,89.4,2106.1,44.9,2409.3,49.5,343.4,2101.2,2411.3,129.5,78.6
0.057345,351.2,85.8,2103.3,41.9,2418.4,47.8,348,2100.2,2415.4,129.4,78.6
0.059345,355.4,83.1,2102.7,39.7,2427.9,47.4,352.3,2099.7,2419.6,129.3,78.5
0.061345,358.9,77.7,2104.7,36.2,2435.4,45.9,356.3,2099.9,2423.9,129.1,78.4
0.063345,362.5,70.5,2106.8,31.9,2441.8,43.8,360,2100.6,2428.2,129,78.3
0.065345,365.7,64.3,2108.0,28.8,2447.3,43.2,363.2,2101.9,2432.6,128.9,78.2
0.067345,367.8,59.9,2109.5,28.0,2450.4,45.0,366.1,2103.8,2436.9,128.7,78.2
0.069345,369.6,57.9,2111.8,29.5,2450.8,48.6,368.5,2106.1,2441.2,128.6,78.1
0.071345,371.7,60.9,2115.0,34.4,2450.7,54.1,370.5,2108.9,2445.5,128.5,78
0.073345,373.1,67.8,2119.3,41.7,2451.4,59.6,372,2112.1,2449.6,128.3,78
0.075345,373.2,72.4,2124.4,45.9,2453.6,62.4,372.9,2115.6,2453.6,128.2,77.9
0.077345,373.0,71.4,2128.6,44.2,2457.5,62.9,373.4,2119.2,2457.4,128.1,77.9
0.079345,372.5,69.6,2130.6,40.2,2462.6,64.8,373.5,2123,2461,127.9,77.8
0.081345,370.7,70.9,2130.5,37.8,2466.8,69.8,373,2126.8,2464.5,127.8,77.7
0.083345,368.2,72.1,2129.1,36.6,2468.0,73.8,372.1,2130.5,2467.7,127.7,77.6
0.085345,366.6,70.4,2127.5,35.5,2467.2,74.7,370.8,2134.1,2470.6,127.6,77.5
0.087345,365.0,68.1,2127.3,35.3,2466.4,76.8,369.2,2137.4,2473.3,127.4,77.5
0.089345,361.5,67.3,2129.3,36.5,2466.4,81.6,367.1,2140.4,2475.8,127.3,77.4
0.091345,357.5,66.2,2132.4,36.1,2467.7,83.8,364.8,2143,2477.9,127.2,77.4
0.093345,355.5,64.2,2133.9,33.4,2469.6,81.8,362.1,2145.2,2479.7,127.1,77.4
0.095345,354.3,64.4,2133.8,30.9,2471.3,79.7,359.3,2146.9,2481.2,127,77.4
0.097345,351.7,67.5,2133.2,30.1,2472.2,78.7,356.2,2148.1,2482.5,126.9,77.5
0.099345,348.7,69.8,2133.1,29.7,2472.9,76.5,353,2148.9,2483.4,126.8,77.5
0.101345,347.2,70.2,2133.2,29.0,2474.8,74.4,349.7,2149.2,2484,126.7,77.6
0.103345,346.5,72.3,2133.3,29.5,2478.6,74.5,346.4,2149,2484.4,126.7,77.6
0.105345,344.6,76.5,2133.9,31.6,2482.8,75.6,343,2148.4,2484.5,126.6,77.6
0.107345,341.9,77.7,2135.8,32.6,2485.0,73.8,339.6,2147.4,2484.3,126.5,77.6
0.109345,339.9,74.8,2139.6,31.6,2485.8,70.8,336.3,2146.2,2483.9,126.4,77.6
0.111345,338.3,71.7,2144.7,30.4,2486.2,71.4,333.1,2144.7,2483.2,126.3,77.6
0.113345,336.0,69.7,2150.6,30.3,2486.0,76.3,329.9,2143,2482.3,126.2,77.5
0.115345,332.9,67.1,2155.1,29.9,2485.5,80.0,326.9,2141.3,2481.3,126.1,77.5
0.117345,330.0,64.8,2157.0,28.3,2486.1,79.5,324.1,2139.6,2480,126,77.5
0.119345,327.0,65.4,2157.3,27.2,2487.4,79.2,321.4,2138,2478.5,125.9,77.5
0.121345,323.8,67.1,2157.0,27.5,2486.7,80.5,318.9,2136.5,2476.9,125.7,77.6
0.123345,320.7,66.2,2155.7,27.8,2483.9,78.6,316.6,2135.3,2475.1,125.6,77.7
0.125345,318.2,64.5,2153.4,26.8,2482.6,73.3,314.5,2134.3,2473.2,125.4,77.8
0.127345,315.8,65.3,2151.6,26.1,2483.4,68.9,312.6,2133.7,2471.1,125.3,77.9
0.129345,313.4,66.7,2151.4,26.3,2482.8,66.3,310.9,2133.4,2468.9,125.1,78.1
0.131345,311.4,64.6,2151.4,25.9,2479.6,63.3,309.4,2133.4,2466.5,124.9,78.2
0.133345,309.1,61.5,2149.5,24.7,2474.4,60.0,308.1,2133.7,2463.9,124.7,78.4
0.135345,306.6,61.0,2144.8,24.9,2466.6,58.9,306.9,2134.4,2461.2,124.4,78.5
0.137345,304.4,60.9,2139.2,27.0,2456.6,59.9,306,2135.3,2458.4,124.2,78.6
0.139345,303.0,57.8,2135.7,29.4,2448.2,60.2,305.1,2136.4,2455.4,123.9,78.6
0.141345,301.8,54.0,2134.3,31.0,2443.3,59.3,304.5,2137.6,2452.1,123.6,78.7
0.143345,300.6,52.5,2132.0,34.2,2440.0,59.1,304,2138.8,2448.7,123.3,78.7
0.145345,299.7,51.8,2127.7,39.8,2437.1,59.6,303.6,2139.8,2445.1,123,78.7
0.147345,299.3,49.1,2123.8,43.8,2435.0,58.7,303.3,2140.7,2441.2,122.7,78.7
0.149345,298.9,46.3,2122.2,44.9,2433.3,58.7,303.1,2141.2,2437.1,122.4,78.7
0.151345,298.3,45.8,2121.1,48.4,2428.5,64.4,303,2141.2,2432.7,122.1,78.7
0.153345,298.1,46.5,2119.4,56.9,2417.6,76.1,302.9,2140.6,2428.1,121.7,78.7
0.155345,298.3,45.7,2117.9,62.8,2405.1,82.5,303,2139.2,2423.2,121.4,78.7
0.157345,298.5,44.6,2117.2,60.0,2398.4,79.3,303,2137,2418,121,78.7
0.159345,298.9,45.9,2115.4,55.1,2396.2,75.4,303.2,2133.9,2412.5,120.7,78.6
0.161345,299.6,48.6,2111.2,54.1,2394.6,75.6,303.3,2129.6,2406.7,120.3,78.6
0.163345,300.3,48.1,2106.4,54.1,2393.3,75.0,303.5,2124.2,2400.7,120,78.5
0.165345,300.6,44.6,2102.7,51.2,2393.1,70.0,303.7,2117.7,2394.3,119.6,78.4
0.167345,301.0,42.5,2098.8,47.8,2392.9,65.5,303.9,2109.9,2387.8,119.3,78.3
0.169345,302.3,43.4,2093.3,49.8,2389.3,69.5,304.2,2100.9,2381,119,78.2
0.171345,304.2,43.1,2086.4,57.7,2380.6,82.1,304.4,2090.7,2374,118.6,78.1
0.173345,305.8,40.1,2079.1,65.5,2371.4,91.4,304.6,2079.4,2366.9,118.3,78
0.175345,307.4,36.9,2071.9,71.4,2366.4,95.1,304.9,2067,2359.6,118,77.8
0.177345,309.3,35.6,2064.7,78.3,2362.0,99.5,305.1,2053.6,2352.3,117.7,77.7
0.179345,311.8,35.9,2058.2,80.2,2355.6,97.4,305.4,2039.4,2344.9,117.4,77.5
0.181345,313.4,35.8,2052.5,74.4,2350.9,85.3,305.6,2024.6,2337.6,117.2,77.3
0.183345,314.4,35.6,2045.1,67.7,2347.9,71.3,305.8,2009.3,2330.4,116.9,77.2
0.185345,315.9,37.5,2032.0,66.6,2343.0,62.6,306,1993.6,2323.2,116.6,77.1
0.187345,317.1,40.2,2012.1,73.7,2332.3,61.0,306.2,1977.9,2316.3,116.4,77
0.189345,316.3,39.8,1995.4,81.7,2318.6,61.1,306.4,1962.4,2309.7,116.2,77
0.191345,314.5,38.1,1983.8,83.8,2308.3,57.4,306.6,1947.2,2303.4,115.9,77
0.193345,313.5,38.3,1971.0,84.2,2302.3,53.7,306.8,1932.6,2297.4,115.7,77.1
0.195345,313.1,40.2,1951.7,92.0,2296.0,57.0,306.9,1918.8,2291.9,115.5,77.1
0.197345,311.6,40.6,1931.0,108.4,2285.2,67.7,307.1,1906,2286.9,115.4,77.2
0.199345,308.9,39.0,1916.2,128.5,2272.7,76.0,307.2,1894.5,2282.5,115.2,77.3
0.201345,306.2,38.6,1902.3,151.4,2265.8,76.1,307.3,1884.4,2278.7,115,77.3
0.203345,303.8,40.7,1876.5,185.4,2263.9,73.6,307.4,1875.9,2275.5,114.9,77.4
0.205345,300.8,42.2,1835.2,230.9,2263.3,71.9,307.5,1869.2,2272.9,114.7,77.4
0.207345,297.1,40.3,1804.8,271.4,2262.2,69.4,307.5,1864.3,2271.1,114.6,77.3
0.209345,293.3,37.9,1791.1,319.1,2261.4,65.2,307.6,1861.3,2270,114.5,77.2
0.211345,288.9,38.4,1776.3,401.3,2261.6,63.2,307.6,1860.3,2269.7,114.3,77
