time,f1,b1,f2,b2,f3,b3,f1p,f2p,f3p,f0,intensity
0.025893,480.3,406.7,962.4,600.1,2246.2,25.7,492.9,1047.1,2251.3,161.3,74.6
0.027893,477.5,333.8,1016.9,416.2,2240.2,18.9,493.7,1053.1,2250,161.1,74.9
0.029893,487.0,277.8,1047.8,314.4,2235.4,15.6,495.2,1062.8,2248.1,161,75.2
0.031893,500.3,242.2,1072.4,277.0,2233.1,15.0,497.3,1076.2,2245.5,160.8,75.6
0.033893,513.2,210.7,1102.9,273.8,2234.8,16.5,500.2,1092.9,2242.4,160.6,76
0.035893,520.3,174.8,1141.7,276.9,2240.2,19.7,503.8,1112.4,2239.1,160.4,76.3
0.037893,521.4,143.2,1183.7,261.8,2246.8,24.0,508.3,1134.5,2235.6,160.2,76.7
0.039893,521.0,130.0,1214.5,228.8,2250.9,27.9,513.6,1158.5,2232.3,160,76.9
0.041893,522.7,136.5,1229.8,195.5,2250.6,29.7,519.8,1184.1,2229.2,159.8,77.1
0.043893,526.6,156.0,1235.6,176.7,2245.8,27.9,526.9,1210.8,2226.6,159.5,77.1
0.045893,531.7,182.6,1242.7,176.6,2238.3,24.4,534.8,1237.9,2224.6,159.2,77.1
0.047893,538.0,215.2,1257.3,198.5,2231.1,21.5,543.6,1265.2,2223.3,159,76.9
0.049893,547.2,254.0,1285.2,244.0,2224.8,19.9,552.9,1292.1,2222.8,158.7,76.6
0.051893,557.5,288.7,1321.2,284.2,2219.5,19.8,562.8,1318.4,2223.1,158.4,76.3
0.053893,567.2,325.9,1345.6,280.8,2215.0,21.3,572.9,1343.6,2224.2,158.1,76
0.055893,577.6,372.1,1353.5,254.9,2212.1,24.6,583,1367.6,2226,157.8,75.6
0.057893,591.0,419.0,1360.9,240.1,2212.0,30.6,592.8,1390.1,2228.3,157.6,75.4
0.059893,606.8,455.3,1378.0,251.8,2215.4,39.7,602.2,1411.2,2231.1,157.3,75.1
0.061893,621.7,470.4,1407.1,279.3,2221.6,49.6,610.7,1430.8,2234.2,157,75
0.063893,629.5,452.0,1444.9,287.8,2229.9,55.9,618,1448.9,2237.4,156.8,74.9
0.065893,626.9,417.1,1471.6,251.4,2238.3,55.9,624,1465.6,2240.5,156.5,74.8
0.067893,622.9,394.4,1482.0,202.9,2245.5,53.3,628.2,1481.1,2243.3,156.3,74.9
0.069893,622.4,386.9,1486.8,173.2,2250.0,50.6,630.7,1495.7,2245.8,156.1,75
0.071893,624.6,385.7,1496.2,162.5,2252.1,47.2,631.1,1509.4,2247.8,155.9,75.1
0.073893,627.3,381.7,1515.7,165.0,2253.3,43.4,629.4,1522.5,2249.3,155.7,75.2
0.075893,626.2,362.2,1542.6,164.4,2254.8,39.3,625.7,1535.4,2250.3,155.5,75.3
0.077893,619.6,331.0,1566.4,149.5,2256.5,35.8,619.8,1548.2,2250.8,155.4,75.3
0.079893,609.6,302.1,1583.9,125.3,2259.0,33.8,612.1,1561.1,2250.9,155.3,75.4
0.081893,599.4,288.1,1594.1,104.7,2261.4,34.1,602.6,1574.3,2250.8,155.2,75.5
0.083893,589.8,290.9,1599.8,92.3,2261.9,36.7,591.6,1588,2250.7,155.1,75.5
0.085893,580.8,309.8,1604.9,86.4,2260.0,41.9,579.5,1602.3,2250.9,155.1,75.6
0.087893,571.8,347.0,1612.9,84.6,2256.7,50.5,566.5,1617.3,2251.6,155,75.6
0.089893,563.1,400.7,1624.7,88.6,2252.7,62.0,553.1,1633,2253,155,75.7
0.091893,552.0,475.6,1642.1,101.3,2249.4,79.5,539.5,1649.4,2255.5,155,75.7
0.093893,535.4,563.4,1664.6,119.2,2249.9,104.9,526.2,1666.5,2259.2,155.1,75.7
0.095893,512.7,631.5,1690.3,131.2,2255.9,135.4,513.5,1684.2,2264.5,155.1,75.7
0.097893,492.6,629.9,1712.4,126.7,2264.9,159.3,501.6,1702.4,2271.4,155.2,75.8
0.099893,480.1,581.5,1730.0,113.1,2273.4,174.0,490.9,1721,2280,155.3,75.9
0.101893,472.2,527.3,1745.7,98.3,2284.1,181.2,481.5,1739.9,2290.3,155.4,76
0.103893,467.5,478.0,1758.2,87.2,2298.0,180.3,473.5,1759,2302.4,155.5,76.1
0.105893,464.4,427.7,1769.7,81.0,2312.6,176.7,466.9,1778.2,2315.9,155.6,76.2
0.107893,462.5,381.3,1782.2,78.4,2325.5,175.3,461.7,1797.2,2330.9,155.8,76.3
0.109893,461.2,334.5,1797.6,77.5,2338.6,176.7,457.8,1816.1,2346.8,155.9,76.4
0.111893,459.3,290.2,1816.1,79.0,2353.6,181.6,455,1834.6,2363.5,156.1,76.5
0.113893,457.2,252.4,1839.9,81.8,2373.7,187.3,453.1,1852.8,2380.5,156.3,76.5
0.115893,455.7,221.5,1865.3,81.4,2399.0,183.8,451.8,1870.6,2397.4,156.5,76.6
0.117893,453.7,192.5,1890.5,76.3,2427.2,167.3,450.8,1887.8,2413.9,156.7,76.7
0.119893,450.7,168.6,1912.9,69.4,2450.3,145.7,449.8,1904.6,2429.3,156.9,76.8
0.121893,447.7,149.2,1931.4,62.7,2465.0,126.6,448.6,1920.7,2443.5,157.1,76.8
0.123893,444.6,132.1,1945.0,58.7,2473.4,113.3,446.8,1936.4,2456,157.3,76.8
0.125893,440.6,115.8,1958.1,58.7,2479.8,104.8,444.2,1951.4,2466.5,157.5,76.7
0.127893,436.7,103.1,1972.6,61.4,2485.0,100.8,440.7,1965.9,2474.9,157.8,76.6
0.129893,433.7,93.8,1986.9,63.7,2487.2,101.1,436.2,1979.7,2481.1,158,76.4
0.131893,430.3,86.3,2001.3,66.4,2485.8,107.8,430.5,1992.9,2484.9,158.2,76.2
0.133893,425.0,82.7,2015.4,72.2,2481.9,124.4,423.8,2005.5,2486.5,158.5,76
0.135893,418.4,84.8,2025.7,80.1,2475.7,151.9,416.1,2017.4,2486,158.7,75.7
0.137893,411.4,94.0,2028.9,85.3,2464.8,178.8,407.6,2028.6,2483.6,158.9,75.6
0.139893,402.5,111.0,2030.2,83.5,2451.9,185.9,398.6,2039,2479.7,159.1,75.4
0.141893,391.4,129.4,2035.4,76.9,2446.6,171.5,389.3,2048.6,2474.6,159.4,75.4
0.143893,379.5,140.8,2045.1,70.6,2446.7,153.2,380,2057.2,2468.8,159.6,75.4
0.145893,369.2,141.9,2057.1,66.3,2447.5,138.5,371.1,2064.9,2462.6,159.8,75.5
0.147893,360.5,133.9,2068.6,62.3,2447.3,124.2,362.8,2071.6,2456.5,160,75.6
0.149893,353.9,120.4,2075.7,58.6,2447.1,111.1,355.6,2077.1,2450.9,160.1,75.7
0.151893,348.9,106.0,2079.2,56.6,2449.4,104.6,349.6,2081.5,2446.1,160.3,75.8
0.153893,345.3,93.7,2082.8,56.3,2455.5,109.3,345.2,2084.7,2442.4,160.5,76
0.155893,342.9,83.2,2090.2,56.5,2465.5,127.7,342.4,2086.6,2440.1,160.6,76.1
0.157893,341.4,74.9,2100.2,55.1,2478.2,155.1,341.5,2087.2,2439.4,160.8,76.3
