time,f1,b1,f2,b2,f3,b3,f1p,f2p,f3p,f0,intensity
0.025367,544.3,238.0,1170.3,226.0,2219.0,50.0,565.7,1206.1,2221.5,121.4,81.2
0.027367,553.8,241.2,1183.1,231.1,2217.5,48.3,566.3,1208.3,2221.1,121.2,81.1
0.029367,560.2,237.1,1194.8,219.7,2218.2,47.5,567.3,1211.9,2220.6,121.1,81.2
0.031367,565.0,228.6,1206.8,197.5,2219.4,50.3,568.7,1216.9,2219.8,120.9,81.2
0.033367,568.7,222.1,1220.3,174.7,2220.2,62.2,570.5,1223.4,2218.8,120.7,81.3
0.035367,572.4,214.6,1233.4,156.4,2219.9,85.4,572.6,1231.1,2217.7,120.4,81.4
0.037367,578.1,203.0,1243.8,145.7,2218.1,109.7,574.9,1240.2,2216.4,120.2,81.4
0.039367,586.4,187.2,1253.9,141.9,2215.9,124.5,577.4,1250.5,2215.1,120,81.5
0.041367,593.7,170.4,1264.9,142.6,2212.8,121.4,580,1262,2213.8,119.8,81.5
0.043367,597.5,150.2,1279.1,138.3,2205.9,103.3,582.7,1274.6,2212.5,119.6,81.5
0.045367,597.9,128.2,1295.4,124.7,2198.1,81.4,585.3,1288.2,2211.3,119.4,81.4
0.047367,597.1,110.6,1312.4,112.1,2194.1,67.6,587.9,1302.8,2210.1,119.2,81.3
0.049367,595.9,102.3,1331.7,112.1,2195.7,65.3,590.4,1318.3,2209.2,118.9,81.2
0.051367,594.9,102.5,1354.9,127.6,2204.1,72.6,592.6,1334.6,2208.4,118.7,81.1
0.053367,595.6,104.6,1378.5,147.5,2217.0,80.0,594.5,1351.5,2207.9,118.5,81
0.055367,597.3,104.1,1397.7,155.3,2226.9,79.9,596,1369.1,2207.7,118.4,80.9
0.057367,597.8,103.0,1413.8,147.0,2229.6,75.4,597.1,1387.2,2207.8,118.2,80.8
0.059367,596.1,104.3,1428.6,128.9,2225.8,69.6,597.8,1405.7,2208.2,118,80.7
0.061367,593.9,106.0,1439.2,109.7,2219.4,62.2,598,1424.6,2209,117.9,80.7
0.063367,593.1,105.6,1445.8,95.6,2214.2,54.2,597.6,1443.7,2210.2,117.8,80.6
0.065367,592.7,105.6,1452.9,90.4,2211.8,48.4,596.6,1463,2211.7,117.7,80.6
0.067367,590.5,110.6,1466.9,96.1,2213.1,46.6,595,1482.3,2213.6,117.6,80.6
0.069367,587.5,117.5,1490.8,107.0,2218.7,47.4,592.8,1501.7,2215.9,117.5,80.6
0.071367,585.4,117.7,1516.5,110.4,2224.8,47.9,590,1521,2218.6,117.4,80.6
0.073367,583.6,112.4,1536.5,107.8,2228.0,48.6,586.6,1540.1,2221.6,117.4,80.7
0.075367,579.7,109.4,1553.8,110.5,2228.8,52.5,582.6,1559.1,2225,117.4,80.7
0.077367,574.0,111.4,1571.8,122.2,2229.7,59.4,578.1,1577.7,2228.6,117.4,80.8
0.079367,569.4,112.4,1588.6,132.7,2232.3,63.1,573,1596.1,2232.5,117.4,80.9
0.081367,565.9,106.8,1604.0,132.5,2235.0,62.4,567.4,1614.1,2236.6,117.4,81
0.083367,561.5,97.4,1619.6,123.8,2236.7,63.0,561.4,1631.7,2241,117.5,81.1
0.085367,554.9,89.7,1639.3,113.2,2239.7,68.6,555,1648.8,2245.5,117.6,81.2
0.087367,548.1,84.0,1657.6,101.9,2245.1,73.9,548.2,1665.5,2250.2,117.7,81.2
0.089367,543.9,79.2,1669.1,91.8,2250.0,74.2,541.1,1681.7,2255,117.8,81.2
0.091367,541.4,78.3,1677.5,89.2,2252.7,75.9,533.7,1697.4,2259.9,118,81.1
0.093367,537.2,87.1,1690.2,99.7,2254.3,88.2,526.2,1712.6,2264.8,118.1,81
0.095367,529.1,103.2,1709.9,116.7,2256.2,108.4,518.5,1727.3,2269.8,118.3,80.9
0.097367,518.3,115.5,1728.5,122.1,2258.8,120.3,510.7,1741.4,2274.9,118.5,80.8
0.099367,506.2,121.8,1741.7,116.1,2261.0,120.2,502.9,1755.1,2280,118.7,80.7
0.101367,492.3,130.2,1758.0,112.5,2263.2,120.7,495.1,1768.3,2285.1,118.9,80.6
0.103367,478.2,142.2,1783.3,114.7,2267.7,127.9,487.3,1781,2290.2,119.1,80.6
0.105367,467.8,145.2,1808.6,112.0,2275.8,133.6,479.5,1793.2,2295.3,119.4,80.6
0.107367,460.5,136.1,1825.3,102.0,2287.0,133.9,471.9,1805,2300.5,119.6,80.7
0.109367,453.9,122.6,1839.8,90.8,2305.5,137.0,464.4,1816.3,2305.7,119.9,80.8
0.111367,448.8,110.2,1857.8,80.2,2333.0,146.1,457,1827.3,2310.9,120.1,81
0.113367,446.6,98.6,1872.7,69.8,2356.7,154.0,449.8,1837.8,2316.2,120.4,81.1
0.115367,445.4,88.5,1878.3,62.8,2365.3,160.8,442.8,1848,2321.6,120.6,81.2
0.117367,442.4,83.0,1878.2,60.2,2363.7,170.5,436,1857.9,2327,120.9,81.3
0.119367,436.4,83.8,1878.1,60.4,2361.0,181.8,429.3,1867.4,2332.5,121.1,81.3
0.121367,429.8,86.9,1880.5,59.7,2360.0,190.3,422.8,1876.6,2338.1,121.3,81.3
0.123367,425.3,89.0,1884.7,57.4,2357.6,196.9,416.6,1885.6,2343.8,121.5,81.3
0.125367,421.7,95.0,1890.1,56.7,2353.0,201.2,410.5,1894.3,2349.5,121.8,81.2
0.127367,415.4,110.2,1896.9,59.0,2349.6,197.5,404.5,1902.7,2355.3,122,81.1
0.129367,405.2,129.3,1903.7,60.9,2350.8,187.0,398.8,1910.9,2361.2,122.1,80.9
0.131367,394.6,140.5,1908.9,60.3,2355.1,178.5,393.2,1918.9,2367,122.3,80.8
0.133367,385.4,144.8,1914.1,59.9,2361.4,173.0,387.8,1926.6,2372.9,122.5,80.7
0.135367,378.3,149.5,1922.6,61.7,2368.4,167.8,382.5,1934.1,2378.7,122.6,80.6
0.137367,372.7,153.7,1934.6,61.5,2375.1,160.5,377.3,1941.4,2384.4,122.7,80.5
0.139367,368.1,153.2,1945.1,56.5,2381.8,151.6,372.3,1948.5,2390,122.8,80.4
0.141367,363.2,153.4,1952.7,51.0,2388.8,143.5,367.5,1955.3,2395.5,122.9,80.4
0.143367,357.3,159.1,1959.4,47.8,2395.8,138.1,362.8,1961.9,2400.6,122.9,80.3
0.145367,351.6,162.7,1965.6,45.0,2401.0,135.6,358.3,1968.3,2405.5,122.9,80.2
0.147367,348.1,156.9,1970.7,41.0,2404.1,135.0,353.9,1974.4,2410,122.9,80.2
0.149367,345.4,147.7,1974.9,37.8,2406.5,137.7,349.7,1980.3,2414.1,122.9,80.2
0.151367,341.4,142.0,1979.2,37.7,2409.0,144.9,345.6,1985.9,2417.6,122.8,80.1
0.153367,337.2,138.1,1983.4,38.4,2411.2,150.7,341.8,1991.3,2420.6,122.7,80.1
0.155367,334.4,133.8,1987.6,36.5,2413.5,147.5,338.1,1996.4,2423.1,122.6,80
0.157367,332.6,133.4,1992.2,32.8,2417.1,134.1,334.7,2001.2,2424.8,122.5,79.9
0.159367,330.9,138.8,1997.4,30.5,2421.0,117.8,331.4,2005.7,2425.9,122.3,79.8
0.161367,329.9,144.1,2002.8,29.6,2423.5,106.3,328.4,2009.9,2426.2,122.1,79.7
0.163367,329.8,144.9,2007.4,28.9,2424.9,100.6,325.7,2013.8,2425.8,121.8,79.6
0.165367,329.5,146.4,2011.7,29.1,2425.5,98.9,323.2,2017.4,2424.6,121.5,79.4
0.167367,327.9,153.0,2017.2,31.6,2425.4,99.9,321,2020.8,2422.7,121.2,79.2
0.169367,325.8,157.5,2024.4,35.0,2424.9,101.8,319,2023.8,2420,120.8,78.9
0.171367,324.4,153.3,2030.9,36.5,2423.8,103.5,317.3,2026.5,2416.6,120.4,78.7
0.173367,322.8,145.9,2035.8,37.4,2420.9,106.7,315.8,2029,2412.5,120,78.4
0.175367,320.0,141.9,2039.6,40.4,2415.2,113.1,314.6,2031.1,2407.7,119.5,78.2
0.177367,316.7,138.6,2042.9,44.0,2409.1,121.0,313.6,2033,2402.4,119,77.9
0.179367,314.4,132.4,2045.9,44.6,2405.0,126.4,312.9,2034.7,2396.6,118.5,77.6
0.181367,312.2,127.6,2048.6,44.4,2401.2,130.6,312.4,2036.1,2390.4,117.9,77.3
0.183367,309.4,129.1,2051.5,48.1,2395.0,135.8,312.1,2037.3,2383.8,117.3,77
0.185367,307.0,133.0,2054.8,56.2,2386.9,138.2,312,2038.3,2377.1,116.7,76.7
0.187367,306.0,130.9,2057.8,62.3,2380.5,135.4,312,2039.1,2370.2,116.1,76.4
0.189367,305.7,127.5,2058.9,65.1,2374.3,132.0,312.1,2039.8,2363.3,115.4,76
0.191367,305.5,134.4,2055.7,70.0,2364.2,130.2,312.4,2040.3,2356.6,114.7,75.7
0.193367,305.7,151.5,2049.7,76.1,2351.2,125.9,312.7,2040.7,2350.1,114.1,75.3
0.195367,307.1,160.9,2046.6,76.6,2341.5,117.4,313.1,2041,2343.9,113.4,74.9
0.197367,309.8,153.8,2047.1,73.8,2335.1,109.7,313.5,2041.2,2338.1,112.7,74.6
0.199367,314.9,137.3,2046.8,76.0,2329.3,107.2,313.9,2041.3,2332.9,112,74.3
0.201367,321.5,116.3,2041.7,91.4,2323.9,113.3,314.3,2041.4,2328.4,111.3,74
0.203367,323.6,92.3,2033.4,122.4,2320.6,131.0,314.7,2041.5,2324.5,110.6,73.9
0.205367,320.2,72.1,2030.2,156.1,2318.6,155.9,315,2041.5,2321.5,109.9,73.7
0.207367,315.7,60.0,2031.5,168.6,2314.8,160.9,315.2,2041.5,2319.2,109.3,73.7
0.209367,313.9,52.6,2023.3,167.0,2306.3,138.6,315.3,2041.5,2317.9,108.7,73.7
0.211367,314.3,46.1,1989.8,170.6,2296.7,111.3,315.4,2041.5,2317.4,108.1,73.7
