time,f1,b1,f2,b2,f3,b3,f1p,f2p,f3p,f0,intensity
0.025485,305.9,207.2,1810.7,129.6,2255.6,99.5,326.9,1856.4,2271.2,192.6,77.4
0.027485,316.8,198.9,1833.7,116.2,2257.8,111.1,327.8,1859.2,2271.9,192.3,77.8
0.029485,326.1,187.4,1852.5,106.3,2259.8,117.1,329.3,1863.6,2273,192,78.3
0.031485,333.2,176.3,1870.0,100.3,2263.8,117.4,331.3,1869.8,2274.6,191.7,78.7
0.033485,339.3,165.9,1890.3,93.9,2272.5,115.5,333.7,1877.4,2276.7,191.3,79
0.035485,344.6,152.8,1912.5,82.1,2287.2,110.6,336.5,1886.2,2279.1,190.9,79.4
0.037485,348.5,138.1,1928.9,67.6,2302.6,100.0,339.5,1896.2,2282,190.5,79.7
0.039485,351.3,125.7,1937.9,55.1,2313.3,84.4,342.7,1906.9,2285.3,190,79.9
0.041485,353.2,118.3,1940.9,46.7,2316.2,67.3,345.9,1918.3,2288.9,189.5,80.2
0.043485,354.6,116.6,1941.0,42.8,2313.1,54.1,349,1929.9,2292.8,189,80.4
0.045485,355.7,118.4,1940.6,42.3,2307.0,45.1,351.8,1941.6,2297,188.4,80.5
0.047485,356.7,121.9,1940.7,45.4,2299.6,39.6,354.4,1953,2301.5,187.8,80.6
0.049485,357.4,125.0,1942.4,52.4,2293.4,37.6,356.7,1964.1,2306,187.2,80.7
0.051485,358.0,127.6,1950.2,64.9,2289.8,40.1,358.5,1974.5,2310.7,186.6,80.7
0.053485,358.4,128.3,1968.1,80.8,2290.4,49.5,359.8,1984.1,2315.4,185.9,80.6
0.055485,358.6,123.3,1995.0,92.5,2297.3,67.6,360.7,1992.8,2320,185.1,80.6
0.057485,358.3,111.4,2019.1,87.1,2313.8,89.8,361,2000.4,2324.5,184.4,80.5
0.059485,357.4,98.3,2025.6,69.4,2334.1,97.2,361,2006.9,2328.8,183.6,80.5
0.061485,356.3,88.5,2021.3,53.1,2348.3,89.4,360.4,2012.3,2332.8,182.8,80.5
0.063485,355.0,82.5,2016.1,41.9,2354.5,77.5,359.5,2016.6,2336.4,181.9,80.6
0.065485,354.0,79.6,2013.4,35.9,2355.1,68.9,358.2,2019.8,2339.6,181.1,80.6
0.067485,353.0,78.6,2011.8,33.3,2351.6,63.4,356.7,2021.9,2342.4,180.2,80.7
0.069485,352.2,79.3,2009.7,33.9,2345.1,60.0,354.9,2023.2,2344.7,179.3,80.7
0.071485,351.5,80.8,2007.3,36.8,2338.1,57.6,353.1,2023.7,2346.4,178.4,80.7
0.073485,350.6,83.1,2007.3,41.6,2333.2,58.2,351.1,2023.4,2347.6,177.4,80.6
0.075485,349.8,85.5,2011.5,48.2,2331.7,63.8,349.1,2022.5,2348.2,176.5,80.5
0.077485,348.8,87.1,2018.4,56.2,2333.1,74.3,347.1,2021.1,2348.4,175.5,80.3
0.079485,347.2,86.2,2025.3,62.8,2338.4,87.3,345.2,2019.2,2348.1,174.5,80.2
0.081485,345.4,82.4,2028.5,61.7,2346.8,97.2,343.4,2016.9,2347.3,173.5,80.1
0.083485,343.5,76.5,2027.2,53.2,2354.6,101.2,341.8,2014.2,2346.2,172.5,80
0.085485,341.9,70.1,2023.8,42.3,2358.0,97.5,340.3,2011.2,2344.8,171.5,80
0.087485,341.1,66.3,2020.9,34.0,2356.9,88.2,339,2007.7,2343.1,170.5,80
0.089485,340.9,65.5,2017.0,28.9,2352.8,78.3,337.9,2003.8,2341.3,169.5,80.1
0.091485,340.7,67.2,2010.5,26.8,2347.7,72.4,337,1999.2,2339.4,168.5,80.1
0.093485,340.4,70.4,2001.0,26.3,2343.2,70.2,336.3,1994,2337.5,167.5,80.1
0.095485,339.9,75.0,1989.6,27.0,2339.7,70.9,335.9,1987.9,2335.7,166.4,80.1
0.097485,339.1,79.9,1978.6,28.5,2336.2,72.9,335.8,1980.7,2334,165.4,80.1
0.099485,338.2,84.6,1967.3,30.9,2331.6,74.1,336,1972.4,2332.5,164.4,80
0.101485,337.4,88.5,1955.1,33.8,2327.5,73.6,336.4,1962.8,2331.3,163.4,80
0.103485,336.9,91.4,1943.8,36.9,2325.8,72.9,337.3,1951.6,2330.3,162.4,79.9
0.105485,336.8,94.3,1932.3,40.7,2325.7,72.8,338.5,1938.8,2329.6,161.4,79.9
0.107485,337.1,97.5,1918.0,45.5,2325.1,71.6,340,1924.3,2329.2,160.4,79.8
0.109485,337.3,100.4,1900.9,49.6,2322.7,68.6,342.1,1908,2329.1,159.4,79.8
0.111485,337.7,103.2,1878.4,51.7,2318.6,64.8,344.5,1890,2329.3,158.4,79.7
0.113485,338.4,104.4,1853.8,50.2,2315.0,61.3,347.4,1870.2,2329.8,157.5,79.7
0.115485,340.0,104.4,1831.9,46.2,2314.5,58.8,350.7,1848.8,2330.5,156.5,79.6
0.117485,343.6,107.4,1814.1,42.6,2319.1,56.5,354.5,1825.9,2331.4,155.5,79.6
0.119485,349.6,113.9,1798.4,41.2,2328.1,52.4,358.7,1801.8,2332.5,154.6,79.5
0.121485,357.3,119.4,1781.7,41.3,2338.1,45.8,363.2,1776.7,2333.7,153.6,79.4
0.123485,366.5,120.4,1763.7,42.5,2347.1,38.1,368,1751,2334.9,152.7,79.2
0.125485,376.7,119.2,1745.9,46.4,2353.9,32.1,373,1725.1,2336.2,151.7,79
0.127485,388.2,122.2,1724.6,55.0,2358.3,28.1,378.1,1699.3,2337.5,150.8,78.8
0.129485,398.7,133.1,1698.9,66.6,2359.1,26.5,383.2,1674.2,2338.8,149.9,78.5
0.131485,407.9,151.7,1668.0,77.2,2356.4,26.8,388.2,1650.1,2340,149,78.2
0.133485,415.0,172.2,1635.4,82.7,2350.2,28.6,393,1627.5,2341.1,148.2,78
0.135485,419.2,183.6,1609.7,80.9,2342.9,29.4,397.5,1606.9,2342.1,147.4,77.6
0.137485,421.4,190.9,1590.7,76.5,2337.8,27.8,401.5,1588.6,2343,146.5,77.2
0.139485,421.1,210.9,1574.8,77.1,2336.0,25.1,404.9,1573.1,2343.7,145.8,76.7
0.141485,415.4,258.1,1560.6,88.1,2335.8,23.7,407.7,1560.7,2344.3,145,76.1
0.143485,401.1,324.7,1545.5,106.5,2335.7,23.4,409.8,1551.7,2344.7,144.3,75.6
0.145485,379.0,371.7,1528.2,124.7,2335.8,24.0,411,1546.1,2345,143.6,75.2
0.147485,360.0,364.1,1509.5,140.0,2336.2,26.4,411.4,1544.3,2345.1,142.9,74.9
