time,f1,b1,f2,b2,f3,b3,f1p,f2p,f3p,f0,intensity
0.025671,314.0,62.9,1432.0,256.0,2256.4,51.8,320.4,1311.6,2245.2,90.9,70.1
0.027671,309.9,62.0,1406.3,284.6,2253.5,45.0,321.5,1304.2,2246.3,91.4,70.2
0.029671,309.9,72.4,1355.8,350.9,2252.1,42.8,323.2,1292.1,2247.9,92,70.2
0.031671,312.9,101.8,1266.5,418.3,2253.3,48.0,325.4,1275.6,2250.3,92.7,70.2
0.033671,315.5,130.3,1193.9,405.7,2256.3,58.0,328.2,1255.2,2253.1,93.3,70.2
0.035671,319.6,139.2,1163.9,374.3,2257.8,61.9,331.4,1231.4,2256.6,94,70.3
0.037671,327.9,139.0,1148.9,365.2,2256.7,55.5,335,1204.9,2260.4,94.7,70.5
0.039671,341.9,135.7,1125.7,368.5,2253.8,46.9,338.8,1176.3,2264.6,95.4,70.7
0.041671,359.0,130.4,1085.9,357.2,2251.4,45.2,342.7,1146.3,2269.2,96.1,71.1
0.043671,371.1,127.1,1054.9,330.4,2255.1,56.2,346.6,1115.8,2273.9,96.8,71.4
0.045671,377.5,129.4,1045.2,314.4,2268.7,74.6,350.4,1085.4,2278.7,97.5,71.8
0.047671,381.6,133.7,1040.7,301.3,2283.7,84.1,354.1,1055.8,2283.6,98.2,72.2
0.049671,382.9,136.9,1026.3,280.6,2290.8,87.3,357.5,1027.6,2288.4,98.9,72.5
0.051671,380.0,145.3,1005.5,261.4,2293.3,97.3,360.6,1001.4,2293.1,99.6,72.8
0.053671,373.7,160.7,990.0,254.0,2300.1,120.0,363.4,977.6,2297.6,100.3,73.1
0.055671,367.7,169.0,980.7,247.5,2312.5,143.5,365.8,956.6,2301.9,100.9,73.3
0.057671,363.1,165.3,971.4,231.2,2323.2,154.8,367.9,938.7,2305.8,101.6,73.5
0.059671,359.3,156.8,958.0,210.3,2327.8,159.3,369.7,924.1,2309.4,102.2,73.7
0.061671,356.3,151.4,939.3,197.9,2324.6,168.9,371.2,912.6,2312.6,102.8,73.9
0.063671,354.2,150.4,919.7,198.7,2313.2,183.5,372.5,904.3,2315.3,103.3,74
0.065671,352.8,149.2,907.4,201.7,2303.9,183.1,373.7,899,2317.6,103.8,74.2
0.067671,353.1,149.9,903.7,202.7,2308.4,165.2,374.9,896.5,2319.5,104.3,74.4
0.069671,357.2,159.0,904.3,206.7,2318.9,148.1,376.1,896.4,2320.9,104.8,74.7
0.071671,365.2,172.7,904.5,208.5,2322.4,138.9,377.5,898.3,2321.8,105.2,75
0.073671,371.3,177.0,904.5,198.7,2319.7,126.3,379,902,2322.2,105.6,75.2
0.075671,373.1,174.3,907.8,184.6,2317.8,105.2,380.9,907,2322.2,106,75.5
0.077671,375.1,177.6,915.6,179.4,2317.0,83.5,383.2,912.9,2321.7,106.3,75.8
0.079671,383.0,193.8,925.8,192.6,2315.7,70.5,385.8,919.3,2320.7,106.6,76
0.081671,397.9,212.1,933.0,222.7,2315.0,66.1,388.9,925.9,2319.3,106.9,76.2
0.083671,411.3,215.1,935.2,249.5,2316.2,63.6,392.5,932.5,2317.5,107.2,76.4
0.085671,416.8,202.8,933.8,256.3,2318.6,60.3,396.5,938.8,2315.2,107.5,76.5
0.087671,417.5,186.3,931.3,251.0,2321.0,59.3,400.9,944.7,2312.6,107.7,76.7
0.089671,420.0,176.8,930.0,254.7,2322.2,68.9,405.7,950.1,2309.5,107.9,76.8
0.091671,425.4,174.2,931.2,266.9,2320.5,96.5,410.7,955,2306,108.1,77
0.093671,428.1,167.3,935.2,261.5,2312.6,131.1,416,959.5,2302,108.3,77.2
0.095671,427.0,155.8,942.5,239.6,2299.1,147.8,421.3,963.7,2297.7,108.5,77.3
0.097671,426.6,150.6,952.9,228.6,2282.9,152.0,426.7,967.7,2293,108.7,77.5
0.099671,430.9,156.7,963.6,245.6,2267.3,152.9,431.9,971.8,2287.9,108.9,77.6
0.101671,437.8,163.6,972.1,274.3,2260.8,138.3,436.9,976.2,2282.5,109.1,77.7
0.103671,441.0,161.4,980.0,282.4,2262.2,111.7,441.6,981.2,2276.7,109.3,77.8
0.105671,439.4,154.4,989.9,269.2,2265.5,89.3,445.9,986.9,2270.5,109.5,77.9
0.107671,437.5,153.4,1003.0,266.5,2268.4,81.4,449.7,993.7,2264.1,109.7,77.9
0.109671,440.0,160.9,1015.0,296.8,2270.2,88.9,452.9,1001.7,2257.4,109.8,78
0.111671,446.2,167.3,1021.6,346.0,2269.0,101.4,455.5,1011.2,2250.5,110,78
0.113671,450.8,167.3,1027.2,377.8,2262.0,106.1,457.4,1022.2,2243.4,110.2,78
0.115671,451.7,163.3,1043.9,371.3,2248.4,103.7,458.7,1034.9,2236.2,110.4,78
0.117671,451.1,156.9,1071.6,331.6,2230.3,102.1,459.3,1049.2,2228.8,110.6,78
0.119671,451.8,146.2,1093.0,283.7,2213.6,100.8,459.3,1065.2,2221.5,110.9,77.9
0.121671,453.7,133.8,1104.2,249.0,2204.0,94.7,458.6,1082.8,2214.1,111.1,77.9
0.123671,455.1,127.1,1112.3,234.1,2200.2,84.3,457.4,1101.9,2206.9,111.3,77.9
0.125671,455.6,132.1,1125.5,244.6,2196.9,75.5,455.7,1122.3,2199.7,111.5,77.8
0.127671,457.2,145.1,1148.6,274.8,2190.8,71.7,453.6,1143.7,2192.8,111.8,77.8
0.129671,459.0,149.2,1174.2,288.7,2184.1,69.7,451.2,1166,2186.1,112,77.8
0.131671,457.9,140.5,1192.8,266.3,2179.1,67.7,448.5,1188.8,2179.7,112.2,77.8
0.133671,453.0,130.0,1209.0,224.6,2174.2,70.4,445.7,1212,2173.5,112.5,77.8
0.135671,445.9,124.5,1226.2,184.3,2166.6,81.9,442.7,1235.2,2167.8,112.7,77.9
0.137671,441.0,121.4,1240.8,155.0,2157.4,94.8,439.8,1258,2162.4,113,77.9
0.139671,439.9,118.8,1253.3,136.0,2152.5,95.3,436.8,1280.3,2157.4,113.2,78
0.141671,439.6,122.6,1268.9,126.6,2152.2,83.6,434,1301.8,2152.9,113.5,78
0.143671,438.3,139.7,1292.4,127.6,2151.2,68.6,431.3,1322.2,2148.8,113.7,78
0.145671,436.3,160.4,1319.1,132.5,2148.1,57.8,428.9,1341.3,2145,113.9,78.1
0.147671,434.4,164.3,1338.8,131.8,2144.7,51.9,426.6,1358.9,2141.8,114.2,78.1
0.149671,432.0,155.9,1353.9,126.9,2142.8,50.2,424.6,1374.8,2138.9,114.4,78.1
0.151671,426.8,149.9,1374.0,124.1,2143.3,55.0,422.8,1388.9,2136.5,114.6,78.1
0.153671,419.6,149.7,1400.3,120.8,2144.3,63.9,421.3,1401,2134.4,114.9,78.2
0.155671,414.5,147.1,1421.1,111.7,2142.3,67.0,420.1,1411,2132.8,115.1,78.2
0.157671,412.6,138.9,1432.4,100.9,2136.5,62.7,419.2,1418.9,2131.5,115.3,78.3
0.159671,411.1,130.8,1441.9,94.4,2128.3,57.3,418.5,1424.5,2130.6,115.5,78.4
0.161671,409.1,128.5,1456.9,94.7,2119.6,55.1,418.1,1427.9,2130.1,115.7,78.5
0.163671,409.3,128.7,1475.6,97.4,2113.4,54.1,418,1429.1,2129.9,115.8,78.6
