time,f1,b1,f2,b2,f3,b3,f1p,f2p,f3p,f0,intensity
0.025000,551.3,77.1,1060.7,221.1,2078.6,249.0,553.4,1060.3,2063,181.6,83.1
0.027000,553.1,77.3,1071.8,217.1,2075.4,223.5,553.4,1061.5,2062.3,181.6,83.3
0.029000,554.3,77.4,1080.5,208.8,2068.2,204.6,553.3,1063.6,2061.1,181.5,83.4
0.031000,555.0,77.8,1086.0,195.3,2059.6,187.9,553.2,1066.3,2059.4,181.5,83.6
0.033000,555.3,78.4,1087.2,177.1,2053.5,175.3,553.1,1069.7,2057.4,181.4,83.7
0.035000,555.1,79.4,1086.3,158.5,2051.1,168.7,553,1073.5,2055.1,181.4,83.8
0.037000,554.5,80.8,1085.7,141.3,2049.7,167.0,552.9,1077.7,2052.6,181.3,83.9
0.039000,553.8,82.0,1086.0,128.5,2045.9,168.4,552.7,1082,2050,181.3,83.9
0.041000,553.0,82.9,1086.2,119.8,2039.0,170.2,552.6,1086.4,2047.3,181.2,84
0.043000,552.1,83.2,1085.4,112.0,2030.9,171.8,552.4,1090.6,2044.7,181.2,84
0.045000,551.1,82.7,1083.9,104.6,2026.7,174.2,552.3,1094.6,2042.2,181.2,84
0.047000,550.3,82.5,1082.8,97.9,2028.4,178.1,552.2,1098,2039.9,181.2,84
0.049000,550.3,83.9,1083.0,93.7,2034.2,182.3,552.1,1101,2037.9,181.1,84
0.051000,550.7,86.8,1084.1,92.4,2039.7,185.0,552.1,1103.2,2036.2,181.1,84
0.053000,551.1,90.2,1085.3,92.9,2042.8,186.0,552.1,1104.7,2034.9,181.1,84
0.055000,551.3,92.4,1086.2,94.1,2042.8,185.3,552.1,1105.5,2034,181.1,84
0.057000,551.0,92.6,1086.8,95.4,2040.3,184.3,552.2,1105.4,2033.5,181.1,84
0.059000,550.6,91.3,1086.8,96.6,2036.3,184.7,552.3,1104.6,2033.3,181.1,84
0.061000,550.3,89.4,1086.4,97.2,2033.6,186.4,552.5,1103.1,2033.5,181.2,84
0.063000,550.4,88.0,1086.1,97.6,2034.3,187.6,552.8,1101,2034,181.2,84.1
0.065000,551.2,87.4,1086.9,98.8,2036.6,186.4,553,1098.4,2034.8,181.2,84.1
0.067000,552.7,87.5,1088.9,101.9,2036.8,183.4,553.3,1095.5,2035.6,181.2,84.1
0.069000,554.3,88.2,1091.8,107.5,2034.5,180.7,553.7,1092.3,2036.6,181.3,84.1
0.071000,555.9,88.9,1094.5,113.9,2034.0,179.9,554.1,1089.1,2037.6,181.3,84.2
0.073000,557.0,88.8,1096.2,118.8,2037.6,179.7,554.5,1086.1,2038.4,181.3,84.2
0.075000,557.7,88.0,1097.3,121.3,2043.9,178.1,554.9,1083.4,2039.1,181.3,84.2
0.077000,557.9,86.4,1098.2,121.3,2048.5,174.6,555.3,1081.1,2039.5,181.4,84.2
0.079000,557.9,83.9,1098.9,119.2,2047.4,171.3,555.7,1079.6,2039.6,181.4,84.2
0.081000,557.8,80.5,1099.6,116.4,2040.9,169.2,556.1,1078.7,2039.3,181.4,84.3
0.083000,557.9,78.1,1100.7,115.6,2034.2,168.8,556.4,1078.8,2038.6,181.4,84.3
0.085000,558.2,77.4,1102.4,118.5,2031.1,170.0,556.7,1079.8,2037.5,181.4,84.3
0.087000,558.4,78.1,1104.6,124.8,2032.9,171.6,557,1081.8,2036,181.4,84.3
0.089000,558.2,78.8,1106.7,131.9,2036.2,172.5,557.2,1084.7,2034.1,181.4,84.3
0.091000,557.5,78.1,1107.9,137.6,2035.1,173.5,557.2,1088.5,2031.9,181.4,84.3
0.093000,556.6,76.1,1107.9,140.8,2027.9,174.4,557.2,1093.2,2029.5,181.4,84.4
0.095000,556.0,74.2,1108.0,143.3,2020.5,174.2,557.1,1098.6,2026.9,181.4,84.4
0.097000,555.5,72.2,1108.4,145.8,2016.9,173.0,556.8,1104.5,2024.4,181.4,84.4
0.099000,554.8,69.4,1108.4,147.2,2018.3,172.2,556.4,1110.7,2022,181.3,84.4
0.101000,553.7,65.7,1107.8,147.2,2021.2,172.9,555.8,1117.1,2019.9,181.3,84.3
0.103000,552.6,61.7,1107.8,147.9,2022.3,174.9,555.1,1123.4,2018.3,181.2,84.3
0.105000,551.9,59.0,1109.6,151.1,2019.9,177.7,554.3,1129.3,2017.4,181.1,84.3
0.107000,551.4,56.8,1113.2,156.3,2015.8,181.9,553.2,1134.7,2017.2,181,84.3
0.109000,550.5,54.6,1116.4,160.3,2012.2,187.5,552,1139.3,2018,180.9,84.2
0.111000,549.3,52.2,1118.3,162.2,2011.0,195.0,550.6,1142.8,2019.9,180.8,84.2
0.113000,548.1,50.3,1120.1,165.2,2014.2,206.3,549.1,1145.1,2022.9,180.7,84.2
0.115000,547.3,49.9,1122.6,170.4,2024.4,222.1,547.3,1146.1,2027.3,180.6,84.1
0.117000,546.6,50.3,1124.3,174.0,2038.8,241.7,545.5,1145.6,2033.1,180.4,84
0.119000,545.5,50.5,1124.9,173.3,2055.7,268.7,543.4,1143.5,2040.2,180.3,83.9
0.121000,543.8,49.9,1125.2,169.8,2070.7,300.1,541.2,1139.9,2048.8,180.1,83.8
0.123000,541.3,48.2,1125.7,164.7,2082.4,338.9,538.9,1134.8,2058.7,180,83.7
0.125000,538.0,45.5,1124.7,157.6,2086.7,379.9,536.4,1128.3,2069.9,179.8,83.5
0.127000,534.6,42.1,1120.4,146.8,2083.5,413.3,533.8,1120.6,2082.3,179.6,83.3
0.129000,530.9,38.2,1113.0,131.0,2080.6,440.7,531.1,1111.8,2095.6,179.3,83.2
0.131000,527.5,34.5,1105.0,113.5,2087.1,466.6,528.3,1102.2,2109.8,179.1,82.9
0.133000,524.8,31.7,1098.3,98.4,2101.1,494.3,525.5,1092.2,2124.5,178.9,82.7
0.135000,521.9,29.5,1092.5,85.8,2119.3,528.3,522.6,1082.1,2139.7,178.6,82.5
0.137000,518.9,28.2,1088.0,77.2,2139.4,566.0,519.6,1072.2,2154.9,178.3,82.2
0.139000,516.2,27.5,1084.4,71.9,2159.7,598.8,516.6,1062.9,2169.9,178,81.9
0.141000,513.3,27.2,1081.2,68.1,2181.4,615.9,513.6,1054.7,2184.5,177.7,81.6
0.143000,510.8,27.3,1078.5,65.2,2208.9,616.0,510.6,1047.8,2198.4,177.4,81.3
0.145000,508.4,28.2,1076.5,62.6,2249.0,623.3,507.7,1042.8,2211.2,177,81
0.147000,505.9,29.8,1075.5,59.3,2252.3,133.1,504.8,1039.8,2222.8,176.6,80.7
0.149000,503.1,31.5,1075.1,54.9,2246.0,123.5,501.9,1039.2,2233,176.2,80.4
0.151000,499.9,33.5,1074.9,49.0,2245.6,112.5,499.1,1041.3,2241.4,175.8,80.1
0.153000,496.5,35.6,1074.6,42.6,2249.4,98.5,496.3,1046.3,2248.1,175.4,79.8
0.155000,493.6,38.1,1074.4,37.1,2232.6,741.7,493.7,1054.2,2252.8,175,79.6
0.157000,491.1,42.4,1074.9,32.9,2251.7,66.9,491.2,1065,2255.5,174.5,79.3
0.159000,489.1,48.9,1076.4,31.0,2248.9,53.8,488.7,1078.9,2256.2,174,79.1
0.161000,487.3,57.6,1079.9,31.1,2247.4,43.0,486.4,1095.6,2255,173.5,78.9
0.163000,485.7,68.0,1086.8,33.9,2245.8,36.8,484.2,1114.9,2251.8,173,78.7
0.165000,483.8,77.7,1096.5,39.3,2242.3,33.2,482.1,1136.6,2246.8,172.5,78.5
0.167000,480.8,85.2,1110.6,48.8,2236.1,29.8,480.2,1160.3,2240.2,172,78.3
0.169000,477.1,88.1,1132.4,63.2,2227.0,26.6,478.4,1185.7,2232.3,171.5,78.2
0.171000,473.3,84.8,1165.3,73.9,2216.8,24.1,476.7,1212.3,2223.1,171,78.1
0.173000,469.4,77.1,1202.3,66.9,2205.9,22.8,475.2,1239.5,2213.2,170.4,78
0.175000,467.3,73.2,1225.9,55.0,2197.0,24.5,473.8,1266.9,2202.6,169.9,78.1
0.177000,467.8,73.5,1242.3,53.0,2191.7,30.9,472.5,1293.8,2191.8,169.4,78.2
0.179000,470.1,73.1,1263.1,60.9,2189.1,44.8,471.4,1319.8,2181.1,168.9,78.3
0.181000,472.5,69.7,1291.9,75.2,2187.0,65.2,470.4,1344.2,2170.7,168.4,78.5
0.183000,473.7,62.0,1333.4,92.4,2182.3,92.5,469.6,1366.6,2161,167.9,78.7
0.185000,473.5,52.9,1381.8,102.9,2177.4,117.6,468.8,1386.5,2152.3,167.5,79
0.187000,472.3,45.7,1424.2,100.7,2182.3,130.5,468.3,1403.4,2144.8,167,79.2
0.189000,470.3,39.8,1459.9,89.4,2188.5,942.6,467.8,1416.9,2138.7,166.6,79.5
0.191000,468.2,35.6,1489.4,77.2,2134.7,812.6,467.5,1426.8,2134.3,166.2,79.8
0.193000,466.5,33.8,1514.7,69.7,2087.2,765.1,467.3,1432.8,2131.5,165.9,80
0.195000,465.1,34.0,1540.2,67.5,2053.5,828.7,467.2,1434.9,2130.6,0,80.3
