time,f1,b1,f2,b2,f3,b3,f1p,f2p,f3p,f0,intensity
0.025256,659.9,183.4,1260.8,98.4,2294.6,28.0,659.3,1265.9,2284,76.5,64.8
0.027256,663.7,175.0,1272.2,92.8,2279.3,40.8,660.4,1268,2282.8,77,64.8
0.029256,665.4,149.8,1274.2,77.1,2267.3,41.2,662.1,1271.6,2280.9,77.4,64.8
0.031256,667.0,124.0,1274.5,62.1,2264.2,34.6,664.4,1276.4,2278.3,78,64.9
0.033256,668.7,104.3,1276.6,51.0,2265.8,28.6,667.3,1282.6,2275,78.5,65
0.035256,670.8,100.3,1283.6,48.2,2268.6,28.6,670.6,1289.8,2271.3,79.1,65.2
0.037256,674.6,122.2,1298.7,57.6,2270.1,41.6,674.1,1298,2267.2,79.7,65.6
0.039256,679.2,160.2,1315.7,73.9,2267.6,74.0,677.8,1307.1,2262.9,80.3,66.2
0.041256,682.4,179.2,1325.4,80.9,2262.1,104.4,681.6,1317,2258.4,81,66.7
0.043256,684.5,170.5,1328.9,75.3,2258.0,102.9,685.1,1327.4,2253.9,81.6,67
0.045256,686.7,155.0,1331.8,67.7,2255.7,86.3,688.5,1338.3,2249.5,82.3,67.1
0.047256,689.3,151.5,1337.9,67.6,2253.1,73.9,691.4,1349.4,2245.4,83,67.2
0.049256,690.7,180.8,1352.5,88.2,2248.1,77.8,693.8,1360.8,2241.6,83.8,67.1
0.051256,687.6,234.9,1373.1,126.6,2244.0,92.2,695.6,1372.3,2238.2,84.5,67.2
0.053256,682.6,265.1,1389.1,146.5,2243.4,92.0,696.7,1383.8,2235.3,85.2,67.3
0.055256,681.2,250.0,1396.8,136.3,2243.5,77.2,697,1395.2,2232.9,86,67.5
0.057256,683.9,211.2,1402.7,114.6,2243.5,61.1,696.5,1406.6,2231,86.7,67.8
0.059256,689.8,181.0,1415.0,98.4,2242.1,53.7,695.2,1418,2229.7,87.4,67.9
0.061256,698.7,175.9,1439.1,90.6,2236.0,59.2,693.1,1429.3,2228.8,88.1,68.1
0.063256,706.5,192.1,1463.0,84.1,2220.8,76.6,690.1,1440.7,2228.4,88.8,68.2
0.065256,707.3,200.0,1471.8,75.3,2202.9,91.7,686.4,1452.1,2228.4,89.5,68.4
0.067256,703.0,191.8,1473.0,66.6,2194.8,98.3,682,1463.6,2228.7,90.1,68.6
0.069256,696.4,184.9,1473.9,63.0,2203.5,100.2,676.9,1475.4,2229.2,90.7,68.9
0.071256,684.8,200.9,1479.7,72.1,2220.4,109.6,671.3,1487.6,2229.9,91.3,69.2
0.073256,666.9,243.1,1495.3,98.7,2229.3,137.3,665.2,1500.2,2230.6,91.9,69.6
0.075256,648.7,272.2,1517.1,123.0,2230.4,168.8,658.7,1513.3,2231.4,92.4,69.9
0.077256,638.2,259.8,1531.0,120.0,2232.4,171.9,651.9,1527.1,2232.1,92.9,70.1
0.079256,633.6,232.7,1537.8,102.6,2241.1,143.5,644.8,1541.5,2232.7,93.4,70.4
0.081256,629.7,225.1,1545.2,92.5,2251.0,114.6,637.5,1556.8,2233.2,93.8,70.6
0.083256,621.6,247.7,1558.5,96.1,2254.5,102.2,630,1572.9,2233.5,94.2,70.8
0.085256,611.5,273.5,1574.8,104.0,2250.3,99.8,622.4,1589.8,2233.6,94.6,70.9
0.087256,605.0,265.7,1588.6,104.5,2242.1,96.4,614.8,1607.6,2233.6,94.9,71.1
0.089256,602.5,237.0,1599.9,101.4,2234.6,92.4,607,1626.1,2233.5,95.2,71.1
0.091256,599.4,213.9,1615.4,107.2,2228.9,93.6,599.1,1645.4,2233.3,95.4,71.2
0.093256,592.6,211.9,1643.8,139.3,2225.5,103.0,591.2,1665.3,2233.2,95.6,71.2
0.095256,584.4,221.1,1692.7,202.5,2224.3,109.7,583,1685.7,2233.2,95.8,71.3
0.097256,580.2,218.0,1735.4,242.0,2223.6,100.4,574.7,1706.4,2233.5,96,71.5
0.099256,577.8,201.2,1751.3,244.6,2221.8,82.2,566.1,1727.4,2234,96.1,71.6
0.101256,572.5,187.0,1756.6,239.9,2222.6,67.8,557.2,1748.4,2234.9,96.2,71.8
0.103256,559.4,200.3,1779.6,251.7,2230.9,66.8,548,1769.3,2236.2,96.2,72
0.105256,539.7,241.7,1824.3,253.4,2244.5,73.3,538.5,1789.8,2238.1,96.2,72.2
0.107256,523.1,275.1,1854.0,230.3,2252.7,74.2,528.5,1809.7,2240.7,96.3,72.3
0.109256,515.9,271.7,1863.6,207.0,2252.8,71.4,518.1,1828.9,2243.8,96.2,72.5
0.111256,512.0,243.4,1868.9,182.4,2252.1,74.3,507.3,1847.1,2247.6,96.2,72.6
0.113256,498.4,215.7,1879.2,144.6,2258.5,87.8,496,1864.2,2252.1,96.1,72.7
0.115256,475.5,198.4,1884.7,110.6,2269.9,101.6,484.4,1880.1,2257.3,96,72.8
0.117256,456.8,191.3,1882.8,92.5,2275.7,101.9,472.3,1894.5,2263,95.9,72.8
0.119256,449.0,196.2,1880.2,83.9,2277.5,91.1,459.9,1907.4,2269.3,95.8,72.9
0.121256,448.0,209.1,1881.1,80.3,2280.6,79.5,447.3,1918.8,2276.1,95.7,72.9
0.123256,444.4,225.3,1890.5,82.7,2285.4,73.2,434.5,1928.4,2283.2,95.5,72.9
0.125256,425.0,237.9,1906.7,85.2,2288.2,69.0,421.6,1936.4,2290.6,95.3,72.8
0.127256,400.1,239.4,1915.3,81.4,2288.2,62.3,408.7,1942.7,2298.1,95.1,72.8
0.129256,381.6,241.2,1917.2,75.4,2287.9,54.1,395.8,1947.4,2305.7,95,72.8
0.131256,372.6,251.8,1917.2,72.1,2288.9,47.9,383.2,1950.4,2313.1,94.7,72.7
0.133256,372.4,270.8,1922.0,79.4,2293.6,50.6,370.9,1952,2320.4,94.5,72.6
0.135256,373.2,278.3,1940.5,102.0,2303.5,70.4,359,1952.2,2327.3,94.3,72.5
0.137256,369.7,268.4,1965.7,118.3,2316.0,97.8,347.5,1951,2333.9,94.1,72.5
0.139256,359.8,258.7,1979.1,113.0,2327.2,106.5,336.6,1948.8,2339.9,93.9,72.4
0.141256,345.6,258.8,1981.7,101.8,2337.3,101.6,326.3,1945.6,2345.5,93.6,72.3
0.143256,327.6,263.9,1980.1,95.6,2354.9,106.1,316.7,1941.6,2350.4,93.4,72.3
0.145256,302.4,249.8,1973.1,92.1,2384.6,124.7,307.9,1937,2354.8,93.2,72.2
0.147256,282.1,200.3,1960.5,84.8,2404.6,135.8,299.8,1931.9,2358.6,92.9,72.3
0.149256,272.3,155.5,1949.7,75.7,2403.7,131.2,292.4,1926.6,2361.8,92.7,72.3
0.151256,266.0,124.1,1941.5,66.2,2396.9,116.9,285.9,1921.2,2364.4,92.5,72.3
0.153256,262.1,104.9,1934.3,59.3,2390.0,99.2,280.1,1915.9,2366.6,92.3,72.3
0.155256,262.4,98.2,1925.3,61.1,2380.6,81.3,275.1,1910.8,2368.3,92,72.2
0.157256,266.2,96.7,1912.1,77.5,2369.4,68.1,270.8,1906,2369.6,91.8,72.2
0.159256,268.4,90.1,1895.8,97.3,2361.4,59.7,267.2,1901.8,2370.5,91.6,72.2
0.161256,267.7,81.3,1883.0,104.1,2357.5,53.0,264.3,1898.2,2371.2,91.5,72.2
0.163256,265.8,73.8,1874.4,102.4,2355.8,45.7,262.1,1895.2,2371.7,91.3,72.2
0.165256,265.0,71.6,1869.4,99.3,2355.4,38.1,260.5,1893.1,2372,91.1,72.3
0.167256,268.5,78.6,1866.5,98.5,2354.7,31.6,259.6,1891.8,2372.2,90.9,72.5
0.169256,279.1,87.8,1864.4,120.5,2351.4,32.7,259.3,1891.4,2372.2,90.8,72.8
