time,f1,b1,f2,b2,f3,b3,f1p,f2p,f3p,f0,intensity
0.025803,368.7,291.5,813.2,203.2,2454.1,78.4,450.4,838.7,2462.8,114.1,73.1
0.027803,401.1,286.1,839.1,184.9,2448.7,77.9,454.3,843.7,2460.3,114.3,73.3
0.029803,430.5,296.5,859.6,176.8,2443.8,77.0,460.7,852,2456.3,114.5,73.6
0.031803,464.2,311.5,868.3,181.1,2440.1,71.1,469.3,863.3,2450.8,114.8,73.9
0.033803,502.1,310.8,868.7,194.7,2438.4,60.4,480.1,877.6,2444.1,115,74.2
0.035803,531.7,290.9,872.1,205.3,2438.3,52.1,492.6,894.6,2436.4,115.3,74.6
0.037803,551.8,255.4,893.0,205.5,2438.7,50.7,506.5,914.1,2428,115.5,75
0.039803,565.6,215.1,934.7,193.3,2437.1,57.6,521.4,935.9,2419,115.8,75.3
0.041803,574.6,180.5,983.3,166.0,2428.7,70.3,537.1,959.6,2409.8,116.1,75.6
0.043803,580.5,154.7,1018.7,136.5,2413.0,78.2,552.9,985,2400.7,116.4,75.9
0.045803,587.2,137.2,1042.5,117.0,2398.4,80.0,568.7,1011.7,2391.8,116.7,76.2
0.047803,596.9,130.5,1065.0,110.3,2387.1,84.8,583.9,1039.5,2383.5,117.1,76.4
0.049803,607.7,134.8,1087.7,116.3,2378.0,94.5,598.3,1068.1,2375.8,117.4,76.5
0.051803,616.3,138.1,1107.2,124.2,2371.0,98.3,611.6,1097.1,2369,117.7,76.6
0.053803,622.0,133.2,1124.3,124.2,2367.0,92.4,623.4,1126.4,2363.1,118.1,76.7
0.055803,625.5,126.8,1144.3,116.6,2364.5,87.3,633.7,1155.7,2358.1,118.5,76.7
0.057803,627.7,126.9,1171.6,106.6,2358.6,92.0,642.3,1184.9,2354,118.8,76.8
0.059803,628.5,130.9,1201.6,93.9,2345.0,103.9,649.1,1213.7,2350.8,119.2,76.8
0.061803,629.4,131.0,1225.5,82.2,2329.2,112.9,654.1,1242.2,2348.4,119.6,76.8
0.063803,632.2,129.9,1246.7,77.3,2322.4,119.8,657.3,1270.1,2346.7,120,76.8
0.065803,636.6,132.6,1275.6,80.8,2328.7,132.2,658.8,1297.4,2345.4,120.4,76.8
0.067803,640.6,131.5,1313.3,85.7,2342.3,140.3,658.7,1324.2,2344.5,120.8,76.8
0.069803,643.0,120.4,1346.5,83.7,2348.2,132.7,657.1,1350.4,2343.7,121.2,76.7
0.071803,645.6,110.8,1371.7,81.6,2345.1,122.5,654.2,1376.1,2342.9,121.6,76.7
0.073803,648.0,113.9,1396.7,88.5,2338.8,125.0,650.3,1401.3,2342,122,76.6
0.075803,648.1,123.7,1430.1,100.1,2332.2,139.2,645.4,1426,2340.9,122.4,76.6
0.077803,645.6,124.9,1464.7,101.2,2329.6,146.9,639.8,1450.4,2339.3,122.8,76.6
0.079803,642.6,119.7,1494.0,90.5,2335.5,134.5,633.6,1474.5,2337.4,123.2,76.5
0.081803,639.4,122.2,1517.2,78.8,2346.3,110.2,627,1498.5,2335,123.6,76.4
0.083803,634.3,138.0,1536.6,71.3,2352.0,88.9,620.1,1522.3,2332.2,124,76.3
0.085803,627.6,159.7,1553.6,66.4,2349.9,74.7,612.9,1546.1,2329.1,124.4,76.2
0.087803,621.0,171.4,1569.3,65.4,2341.9,70.7,605.7,1569.8,2325.7,124.8,76.1
0.089803,613.8,173.5,1588.6,70.2,2331.6,79.0,598.3,1593.6,2322.2,125.2,75.9
0.091803,603.8,172.8,1615.1,78.5,2321.5,99.3,590.9,1617.5,2318.7,125.5,75.8
0.093803,592.7,169.1,1641.1,82.5,2317.0,115.4,583.4,1641.4,2315.4,125.9,75.7
0.095803,583.7,164.5,1660.8,81.2,2314.4,116.2,575.7,1665.4,2312.3,126.2,75.6
0.097803,573.5,163.7,1680.8,82.2,2307.5,114.0,567.9,1689.3,2309.7,126.6,75.4
0.099803,561.0,168.1,1707.3,89.3,2296.0,118.8,559.8,1713.2,2307.6,126.9,75.3
0.101803,550.2,172.6,1737.9,93.8,2287.5,125.6,551.4,1737,2306.2,127.2,75.1
0.103803,541.5,177.3,1766.6,90.2,2287.4,129.9,542.6,1760.6,2305.5,127.5,74.9
0.105803,530.4,190.2,1789.8,84.0,2293.9,135.6,533.5,1784,2305.6,127.8,74.7
0.107803,513.0,210.2,1811.2,79.7,2302.6,146.0,523.9,1806.9,2306.5,128,74.6
0.109803,488.4,218.7,1832.1,75.5,2311.6,153.8,513.8,1829.5,2308.1,128.2,74.4
0.111803,467.5,199.1,1848.2,73.0,2316.5,150.8,503.2,1851.4,2310.4,128.4,74.3
0.113803,458.5,168.9,1861.7,77.8,2313.7,142.2,492.2,1872.8,2313.2,128.6,74.2
0.115803,458.8,149.1,1877.1,88.1,2307.9,134.4,480.7,1893.4,2316.5,128.7,74.1
0.117803,461.4,138.8,1898.2,94.2,2308.0,129.5,468.8,1913.2,2320,128.8,74
0.119803,461.0,134.1,1924.1,90.9,2318.4,127.6,456.6,1932.1,2323.7,128.9,74
0.121803,457.3,133.0,1953.0,82.8,2335.2,125.2,444.2,1950,2327.3,128.9,73.9
0.123803,451.6,132.9,1981.4,73.7,2352.0,120.5,431.6,1967,2330.7,128.9,73.8
0.125803,443.7,131.2,1999.0,68.7,2361.8,117.8,419.1,1982.9,2333.8,128.9,73.6
0.127803,430.2,128.8,2006.2,71.8,2364.1,124.1,406.7,1997.8,2336.4,128.8,73.5
0.129803,407.4,124.3,2010.1,88.1,2358.7,148.2,394.4,2011.6,2338.4,128.7,73.3
0.131803,382.9,113.6,2017.0,117.2,2341.6,187.1,382.6,2024.3,2339.8,128.6,73.1
0.133803,367.4,100.9,2028.4,143.3,2320.6,216.6,371.1,2035.8,2340.5,128.4,72.9
0.135803,359.0,89.5,2042.7,155.0,2309.4,227.9,360.3,2046.4,2340.6,128.2,72.7
0.137803,352.1,80.7,2055.0,156.0,2310.0,223.1,350.1,2055.8,2340.1,128,72.4
0.139803,345.3,74.4,2063.6,149.8,2315.5,206.1,340.7,2064.3,2339.1,127.7,72.2
0.141803,339.1,69.6,2072.5,134.8,2324.6,184.5,332.1,2071.7,2337.6,127.4,71.8
0.143803,333.0,66.3,2084.9,116.3,2337.0,166.6,324.4,2078.2,2335.9,127.1,71.4
0.145803,324.5,63.8,2101.0,100.5,2351.3,155.4,317.6,2083.7,2334,126.8,70.8
0.147803,313.3,61.3,2118.4,90.1,2363.6,149.5,311.8,2088.3,2332.1,126.5,70.2
0.149803,304.1,61.3,2128.0,93.7,2361.9,149.4,307,2092,2330.3,126.2,69.6
0.151803,298.2,68.6,2122.4,121.9,2342.2,150.9,303.3,2094.9,2328.8,125.8,68.8
0.153803,293.4,82.0,2099.1,178.9,2317.8,147.4,300.6,2096.9,2327.6,125.5,68
0.155803,287.5,92.1,2060.6,256.2,2305.3,151.6,299,2098.1,2326.8,125.1,67.1
0.157803,282.7,92.5,2030.3,324.8,2314.5,191.4,298.4,2098.5,2326.6,124.8,66.2
