time,f1,b1,f2,b2,f3,b3,f1p,f2p,f3p,f0,intensity
0.025624,364.4,190.3,798.1,314.5,2472.0,61.9,415.6,840.1,2474,124.1,76.4
0.027624,374.8,190.5,792.3,327.8,2478.4,63.6,416.8,843.9,2473.9,124.2,76.7
0.029624,385.8,191.6,789.5,345.4,2476.6,70.5,418.8,850.2,2473.7,124.3,77
0.031624,397.4,189.4,786.4,360.1,2469.8,77.7,421.4,858.7,2473.3,124.4,77.4
0.033624,408.3,185.7,786.7,378.1,2464.4,75.8,424.6,869.3,2473,124.6,77.7
0.035624,422.4,186.7,791.9,428.0,2462.1,68.7,428.4,881.4,2472.5,124.7,78.1
0.037624,440.7,190.9,802.7,535.1,2462.2,66.3,432.5,894.9,2472,124.8,78.4
0.039624,460.9,185.7,830.2,711.9,2464.0,70.6,437,909.2,2471.5,125,78.7
0.041624,474.7,171.5,894.2,899.9,2467.4,73.6,441.6,923.9,2470.9,125.1,79
0.043624,485.6,157.1,1041.7,1021.7,2471.2,73.3,446.2,938.6,2470.3,125.2,79.2
0.045624,494.4,149.7,1181.6,966.9,2473.9,77.4,450.7,952.8,2469.8,125.3,79.4
0.047624,500.3,149.1,1247.8,894.1,2475.3,88.6,454.9,966.1,2469.3,125.4,79.6
0.049624,501.6,151.4,1244.2,860.3,2475.5,96.1,458.7,978.1,2468.8,125.5,79.8
0.051624,498.8,157.1,1183.8,833.8,2475.6,92.9,462,988.4,2468.4,125.6,79.9
0.053624,491.9,169.6,1087.0,773.1,2476.4,84.4,464.6,996.7,2468,125.7,80
0.055624,480.5,184.7,996.9,652.6,2478.1,75.8,466.5,1002.8,2467.7,125.8,80
0.057624,469.0,189.7,951.0,538.7,2479.2,66.6,467.7,1006.4,2467.5,125.8,80.1
0.059624,460.5,186.6,930.8,460.4,2478.0,56.9,467.9,1007.4,2467.5,125.8,80.1
0.061624,451.8,183.3,916.6,399.5,2474.0,49.5,467.3,1005.8,2467.5,125.9,80.1
0.063624,442.9,180.9,905.3,355.1,2468.4,46.8,465.8,1001.7,2467.6,125.9,80.1
0.065624,435.2,174.2,896.4,317.6,2463.4,45.9,463.4,995.1,2467.8,125.8,80
0.067624,430.4,166.0,891.9,290.5,2461.7,44.1,460.2,986.2,2468.1,125.8,80
0.069624,427.0,162.6,891.8,272.5,2463.4,42.4,456.1,975.3,2468.5,125.7,79.9
0.071624,424.7,164.4,894.8,261.3,2467.6,42.8,451.3,962.7,2468.9,125.7,79.8
0.073624,423.3,164.1,896.3,249.1,2472.6,44.2,445.9,948.7,2469.5,125.6,79.7
0.075624,422.7,160.6,895.3,237.1,2475.2,44.1,439.9,933.7,2470.1,125.4,79.6
0.077624,422.4,160.4,895.5,229.0,2474.8,44.4,433.6,918.2,2470.8,125.3,79.5
0.079624,421.0,163.1,895.4,224.5,2472.0,47.4,426.9,902.4,2471.5,125.1,79.4
0.081624,417.5,160.4,890.3,218.0,2467.7,51.2,420,886.8,2472.2,124.9,79.3
0.083624,413.2,151.9,881.8,211.1,2463.4,53.9,413.1,871.9,2472.9,124.7,79.2
0.085624,408.1,144.2,873.7,208.0,2459.9,58.7,406.3,857.9,2473.7,124.5,79.1
0.087624,403.4,140.5,868.8,209.2,2458.5,65.8,399.7,845.1,2474.4,124.2,79
0.089624,400.5,138.0,865.0,213.9,2459.0,72.1,393.4,833.9,2475.1,123.9,78.9
0.091624,399.0,135.9,860.5,223.0,2461.5,75.0,387.5,824.3,2475.8,123.6,78.8
0.093624,396.1,135.2,854.7,235.9,2466.9,75.9,382.1,816.7,2476.5,123.3,78.8
0.095624,391.3,133.0,849.5,239.8,2473.4,75.7,377.2,811,2477.1,123,78.7
0.097624,387.3,126.2,843.6,228.1,2478.9,76.3,372.9,807.2,2477.7,122.6,78.7
0.099624,384.6,118.2,835.9,209.0,2483.6,81.8,369.3,805.3,2478.2,122.3,78.6
0.101624,381.4,114.8,829.7,193.9,2487.3,91.7,366.4,805.2,2478.7,121.9,78.5
0.103624,376.6,114.6,826.4,182.5,2489.6,97.7,364.1,806.7,2479.2,121.5,78.4
0.105624,372.6,114.2,824.0,174.0,2489.6,92.3,362.5,809.5,2479.6,121,78.3
0.107624,370.1,114.9,821.1,169.3,2489.0,80.0,361.4,813.3,2479.9,120.6,78.2
0.109624,367.8,119.4,820.1,171.1,2488.4,68.6,360.9,818,2480.2,120.2,78
0.111624,364.0,125.5,823.0,173.3,2487.5,59.0,360.9,823,2480.5,119.7,77.9
0.113624,360.0,128.3,827.5,166.4,2486.6,50.6,361.3,828.2,2480.8,119.2,77.7
0.115624,356.4,132.1,831.6,152.7,2486.4,41.8,362.1,833.2,2481,118.7,77.5
0.117624,352.9,142.7,834.3,142.1,2486.8,34.6,363.1,837.6,2481.2,118.2,77.4
0.119624,349.5,157.3,835.5,136.9,2487.1,30.2,364.2,841.2,2481.3,117.7,77.2
0.121624,348.1,161.4,834.0,131.4,2486.9,29.1,365.5,843.7,2481.4,117.2,76.9
0.123624,349.3,152.8,829.2,119.4,2487.1,30.3,366.7,845,2481.5,116.6,76.7
0.125624,351.9,140.8,822.5,105.2,2488.3,33.8,367.8,844.8,2481.6,116.1,76.4
0.127624,355.6,130.4,815.6,95.7,2489.4,42.5,368.8,843.2,2481.6,115.5,76.1
0.129624,359.5,119.7,809.9,93.5,2487.5,56.6,369.5,839.9,2481.5,114.9,75.8
0.131624,364.6,109.9,805.0,95.7,2482.4,67.1,369.9,835.2,2481.4,114.3,75.5
0.133624,372.6,107.8,800.4,103.1,2476.1,69.0,370,829.1,2481.2,113.7,75.2
0.135624,381.4,118.8,797.5,117.5,2469.6,67.7,369.8,821.6,2481,113,75
0.137624,387.5,138.5,796.1,134.8,2461.2,66.9,369.2,813.2,2480.7,112.4,74.8
0.139624,387.3,148.7,794.5,139.2,2456.9,65.6,368.2,803.9,2480.3,111.7,74.6
0.141624,382.1,143.7,790.6,126.4,2459.5,66.3,366.8,794,2479.7,111,74.6
0.143624,374.1,132.7,786.0,107.8,2464.5,71.1,365.1,784,2479.1,110.3,74.6
0.145624,362.9,122.8,782.2,93.2,2467.9,76.1,363,774,2478.3,109.5,74.5
0.147624,352.4,115.3,779.2,86.5,2470.0,74.3,360.7,764.5,2477.5,108.8,74.5
0.149624,344.9,109.8,774.6,83.8,2473.3,67.2,358.1,755.7,2476.4,108,74.5
0.151624,341.1,109.8,767.7,84.2,2476.6,62.7,355.3,748,2475.3,107.1,74.4
0.153624,339.2,116.7,759.8,89.5,2478.0,66.4,352.4,741.7,2474,106.3,74.2
0.155624,338.2,123.4,755.1,97.6,2475.1,77.0,349.4,736.9,2472.6,105.4,74
0.157624,337.4,122.8,754.3,103.2,2470.1,82.3,346.3,733.8,2471.1,104.5,73.6
0.159624,337.1,120.5,755.9,106.3,2470.3,76.8,343.2,732.7,2469.4,103.6,73.2
0.161624,338.9,126.4,759.2,118.9,2474.9,70.5,340.2,733.4,2467.6,102.7,72.7
0.163624,344.7,142.8,765.1,159.3,2478.9,70.7,337.2,736.2,2465.8,101.7,72.1
0.165624,353.5,153.0,774.2,248.0,2478.6,77.6,334.4,740.8,2463.9,100.8,71.4
0.167624,358.1,144.7,781.7,351.5,2474.0,81.8,331.8,747.2,2461.9,99.8,70.8
0.169624,356.2,135.7,778.7,392.1,2469.8,76.9,329.3,755.2,2459.9,98.8,70.2
0.171624,349.0,134.3,769.7,356.4,2467.1,70.1,327,764.6,2457.9,97.8,69.6
0.173624,336.1,138.4,766.2,292.3,2465.9,70.2,325,775,2455.9,96.8,69.1
0.175624,318.3,135.1,766.9,231.0,2466.9,80.0,323.1,786.2,2454,95.9,68.7
0.177624,306.8,121.2,765.6,189.8,2470.4,90.5,321.5,797.8,2452.1,94.9,68.3
0.179624,301.8,108.7,762.3,162.6,2472.5,95.2,320.1,809.5,2450.4,94,67.8
0.181624,300.7,106.0,760.0,152.2,2469.7,100.6,318.9,820.8,2448.8,93,67.3
0.183624,302.4,117.6,757.6,166.1,2460.3,111.9,317.9,831.5,2447.3,92.1,66.6
0.185624,307.5,148.8,749.5,229.6,2445.3,134.2,317,841.2,2446.1,91.3,65.9
0.187624,320.3,203.3,717.2,414.2,2415.7,198.4,316.4,849.6,2445,90.4,65.1
0.189624,347.8,233.5,628.9,780.3,2348.5,316.1,315.9,856.4,2444.1,89.6,64.4
0.191624,357.8,202.0,501.7,1277.5,2251.8,404.6,315.5,861.5,2443.5,88.9,63.7
0.193624,219.0,1968.1,352.5,178.2,2226.1,470.6,315.3,864.6,2443.2,88.2,63
0.195624,350.2,166.5,2256.8,679.9,2862.6,993.7,315.2,865.6,2443,87.5,62.1
