time,f1,b1,f2,b2,f3,b3,f1p,f2p,f3p,f0,intensity
0.025086,356.0,175.4,1527.0,254.3,2329.1,301.4,444.1,1512.2,2310.1,163.6,78.7
0.027086,383.7,189.9,1529.5,215.2,2346.2,242.0,446.3,1510.2,2311.3,163.2,79.7
0.029086,412.2,202.1,1529.7,189.9,2354.7,205.1,449.9,1506.8,2313.2,162.9,80.4
0.031086,440.3,211.6,1527.4,168.2,2357.2,174.7,454.8,1502.2,2315.9,162.5,80.9
0.033086,463.4,221.3,1521.4,150.2,2355.4,149.2,460.9,1496.3,2319.2,162.2,81.2
0.035086,482.6,236.4,1510.7,138.4,2349.5,130.7,468.1,1489.1,2323.1,161.8,81.3
0.037086,502.6,257.9,1493.2,134.7,2335.9,121.0,476.1,1480.8,2327.5,161.5,81.4
0.039086,518.8,269.9,1469.1,144.0,2312.9,122.2,484.9,1471.4,2332.2,161.1,81.4
0.041086,524.8,262.0,1441.0,166.2,2292.6,126.4,494.2,1460.9,2337.1,160.8,81.4
0.043086,528.7,244.6,1416.0,188.8,2290.3,122.1,503.7,1449.4,2342.1,160.4,81.5
0.045086,536.3,225.1,1397.5,204.1,2298.9,111.6,513.3,1437,2347.2,160.1,81.6
0.047086,546.1,207.4,1387.5,213.2,2309.0,103.6,522.8,1423.7,2352,159.8,81.8
0.049086,555.7,193.6,1383.2,221.3,2319.8,99.3,531.9,1409.8,2356.7,159.5,82
0.051086,565.0,182.9,1380.5,227.0,2333.9,92.4,540.4,1395.3,2360.9,159.3,82.2
0.053086,573.2,176.8,1374.9,223.8,2348.7,80.0,548.1,1380.2,2364.7,159,82.3
0.055086,578.8,175.3,1362.8,210.3,2360.5,68.9,554.8,1364.8,2368,158.8,82.5
0.057086,580.7,175.0,1344.3,189.8,2369.5,63.1,560.5,1349,2370.6,158.6,82.6
0.059086,579.3,172.7,1324.7,171.6,2374.3,64.3,564.9,1333.1,2372.5,158.4,82.6
0.061086,576.4,170.7,1307.4,162.6,2373.7,72.5,568,1317.1,2373.8,158.2,82.6
0.063086,572.1,171.4,1291.6,160.4,2367.9,86.9,569.7,1301.2,2374.3,158.1,82.6
0.065086,566.8,173.5,1278.1,158.5,2362.3,102.1,570,1285.4,2374.2,158,82.6
0.067086,561.1,175.4,1266.0,153.0,2363.2,114.4,568.8,1269.9,2373.3,157.9,82.5
0.069086,553.7,177.2,1253.1,143.5,2370.2,125.9,566.3,1254.7,2371.9,157.8,82.5
0.071086,545.8,178.9,1241.7,132.4,2380.7,133.2,562.4,1240,2369.9,157.8,82.5
0.073086,538.9,180.7,1233.4,123.8,2391.2,135.0,557.2,1225.8,2367.4,157.7,82.4
0.075086,532.1,185.0,1226.3,119.6,2399.9,138.0,550.8,1212.2,2364.5,157.7,82.4
0.077086,525.2,193.1,1219.1,121.0,2402.6,149.7,543.4,1199.2,2361.4,157.8,82.3
0.079086,518.3,203.5,1210.3,127.8,2397.1,173.0,535.1,1187,2358.1,157.8,82.2
0.081086,511.6,215.3,1199.8,139.5,2384.2,203.2,526.1,1175.4,2354.7,157.9,82.1
0.083086,504.7,229.8,1186.7,154.4,2364.7,233.2,516.5,1164.5,2351.4,157.9,82
0.085086,497.4,243.2,1171.2,163.1,2344.7,246.5,506.6,1154.4,2348.2,158,81.9
0.087086,488.7,250.6,1154.3,159.0,2332.5,241.2,496.3,1145,2345.4,158.1,81.8
0.089086,476.5,248.9,1136.6,144.3,2330.0,231.4,486.1,1136.2,2342.8,158.2,81.7
0.091086,462.4,235.7,1121.7,125.7,2334.4,228.3,475.9,1128,2340.8,158.4,81.6
0.093086,449.6,216.3,1111.1,108.7,2338.2,232.3,466,1120.3,2339.2,158.5,81.5
0.095086,439.3,198.1,1103.2,96.0,2337.8,243.6,456.4,1113.2,2338.2,158.6,81.3
0.097086,432.6,185.8,1097.8,91.1,2336.5,262.1,447.4,1106.4,2337.8,158.7,81.2
0.099086,428.9,176.9,1095.1,94.2,2340.6,280.6,438.9,1099.8,2338,158.9,81.1
0.101086,427.7,171.5,1094.8,107.9,2348.3,291.6,431,1093.5,2338.7,159,81.1
0.103086,429.4,175.3,1095.4,134.9,2351.1,291.5,423.8,1087.2,2340.1,159.1,81.1
0.105086,432.9,186.5,1094.6,172.7,2348.8,289.2,417.3,1080.9,2342,159.2,81.1
0.107086,436.6,199.1,1090.2,215.7,2345.8,291.1,411.5,1074.4,2344.3,159.4,81.2
0.109086,437.9,207.4,1080.4,246.1,2343.3,289.9,406.4,1067.7,2347.1,159.4,81.3
0.111086,435.0,207.2,1063.9,251.0,2341.9,279.7,401.9,1060.7,2350.1,159.5,81.3
0.113086,428.1,197.3,1043.5,234.3,2340.8,263.8,398,1053.3,2353.3,159.6,81.4
0.115086,420.2,182.7,1025.8,210.4,2338.6,250.3,394.5,1045.4,2356.6,159.6,81.4
0.117086,412.7,168.4,1012.8,190.8,2335.1,239.5,391.5,1036.9,2359.9,159.7,81.4
0.119086,405.9,157.0,1004.4,181.0,2331.3,228.1,388.7,1027.9,2363,159.7,81.3
0.121086,399.5,148.7,999.4,181.9,2329.1,213.4,386.1,1018.4,2365.9,159.7,81.3
0.123086,392.6,141.9,995.5,192.7,2332.2,198.1,383.7,1008.3,2368.3,159.6,81.3
0.125086,384.6,132.6,989.6,213.4,2340.5,188.4,381.2,997.6,2370.3,159.6,81.2
0.127086,375.8,121.4,980.9,251.3,2352.6,188.8,378.7,986.5,2371.8,159.5,81.2
0.129086,368.2,112.3,971.3,305.5,2368.3,201.0,376,975,2372.5,159.3,81.2
0.131086,362.3,105.5,962.4,358.4,2385.4,221.4,373,963.2,2372.6,159.2,81.2
0.133086,356.5,98.6,952.7,395.9,2400.0,250.2,369.8,951.2,2371.9,159,81.2
0.135086,350.4,91.2,941.4,410.3,2406.2,282.8,366.2,939.1,2370.5,158.8,81.2
0.137086,344.3,83.8,928.7,407.5,2404.7,307.3,362.3,927.2,2368.3,158.6,81.2
0.139086,338.5,76.3,916.3,396.2,2400.8,315.7,358,915.6,2365.4,158.3,81.3
0.141086,333.3,68.6,904.0,380.8,2396.9,303.9,353.4,904.4,2361.7,158,81.3
0.143086,328.4,60.4,887.6,358.7,2386.6,275.5,348.5,893.9,2357.4,157.7,81.4
0.145086,323.8,52.0,871.3,333.6,2366.1,235.2,343.4,884.2,2352.4,157.3,81.5
0.147086,320.3,45.0,865.7,321.5,2348.2,197.8,338.1,875.5,2347,157,81.5
0.149086,318.3,39.8,870.2,329.9,2340.7,174.6,332.7,868,2341.2,156.5,81.5
0.151086,317.6,36.0,877.6,356.7,2340.0,166.9,327.3,861.9,2335.2,156.1,81.6
0.153086,318.0,33.9,878.0,379.1,2336.4,178.6,322.1,857.4,2328.9,155.6,81.6
0.155086,318.2,32.9,871.3,369.4,2319.8,199.1,317.1,854.5,2322.7,155.1,81.6
0.157086,317.0,31.8,868.5,330.4,2295.8,210.0,312.4,853.4,2316.5,154.5,81.5
0.159086,314.2,29.9,874.9,286.7,2284.4,212.0,308.1,854.2,2310.5,154,81.5
0.161086,311.3,26.8,886.0,254.8,2291.0,211.5,304.4,856.9,2304.9,153.4,81.5
0.163086,310.0,23.4,895.9,241.4,2305.7,199.9,301.3,861.6,2299.7,152.7,81.5
0.165086,310.4,20.6,904.1,248.4,2312.4,170.5,298.9,868.3,2295,152.1,81.5
0.167086,311.8,19.3,912.1,267.1,2302.8,137.6,297.2,876.9,2291,151.4,81.5
0.169086,312.7,19.2,919.2,270.1,2286.2,114.4,296.4,887.4,2287.6,150.7,81.4
0.171086,311.9,19.5,923.2,247.9,2270.1,98.2,296.4,899.6,2284.9,150.1,81.3
0.173086,309.0,19.4,925.3,216.6,2257.7,87.6,297.2,913.4,2283,149.4,81
0.175086,305.4,18.8,927.3,195.4,2249.7,83.0,298.8,928.7,2281.8,148.7,80.7
0.177086,303.4,18.8,927.2,197.6,2247.5,88.3,301.2,945.3,2281.4,148,80.3
0.179086,304.7,21.5,922.0,233.3,2256.2,111.9,304.3,962.8,2281.7,147.3,79.7
0.181086,309.4,27.5,916.4,275.4,2275.6,149.8,308.1,981.1,2282.6,146.6,79.1
0.183086,317.4,35.4,920.9,281.7,2293.3,173.3,312.4,999.9,2284.1,145.9,78.3
0.185086,327.0,41.0,937.2,260.1,2297.5,159.3,317.1,1018.9,2286.1,145.3,77.5
0.187086,335.4,42.6,961.5,235.6,2297.5,128.2,322.2,1037.8,2288.5,144.6,76.6
0.189086,342.2,42.7,997.1,210.5,2300.2,95.1,327.4,1056.3,2291.2,144,75.7
0.191086,345.5,45.1,1040.5,187.5,2305.5,69.8,332.7,1074.2,2294.1,0,74.7
0.193086,340.8,51.0,1076.1,173.3,2309.4,55.5,337.9,1091,2297.1,0,73.8
0.195086,327.8,55.7,1097.2,172.3,2310.8,48.7,342.9,1106.6,2300.1,0,73.1
0.197086,318.6,55.2,1108.2,192.2,2310.8,48.9,347.5,1120.7,2302.9,0,72.7
0.199086,321.3,54.1,1123.0,254.5,2310.8,58.6,351.6,1133.1,2305.5,0,72.4
0.201086,336.1,51.5,1157.6,374.3,2311.6,80.8,355.1,1143.5,2307.7,0,72.2
0.203086,353.8,43.9,1210.7,510.8,2312.8,109.7,358,1151.8,2309.6,0,72.1
0.205086,363.5,38.2,1240.9,601.9,2312.1,127.0,360.1,1157.8,2310.9,0,71.8
0.207086,366.9,37.5,1241.2,676.0,2309.4,131.1,361.4,1161.5,2311.7,0,71.4
0.209086,367.7,38.9,1213.9,747.4,2304.0,134.7,361.8,1162.7,2312,0,70.7
