time,f1,b1,f2,b2,f3,b3,f1p,f2p,f3p,f0,intensity
0.025952,668.7,268.4,1613.0,97.4,2404.0,40.5,578.1,1706.9,2410.6,0,72.2
0.027952,639.6,272.2,1612.5,87.3,2409.8,38.2,575.7,1711.7,2412.4,0,71.7
0.029952,604.4,345.6,1634.4,101.2,2413.8,49.4,571.8,1719.5,2415.3,0,71.1
0.031952,569.5,546.4,1709.3,144.0,2412.6,85.4,566.4,1730.3,2419.4,0,70.6
0.033952,529.7,664.1,1790.4,140.0,2411.7,111.8,559.6,1744,2424.6,0,70.2
0.035952,508.5,642.7,1819.4,111.4,2411.0,106.8,551.6,1760.2,2430.8,0,69.8
0.037952,502.2,608.6,1823.5,92.7,2410.7,94.9,542.4,1778.8,2438,0,69.5
0.039952,497.1,547.6,1822.5,80.6,2411.9,85.2,532.2,1799.5,2446.1,0,69
0.041952,487.7,451.5,1824.6,74.7,2415.5,81.0,521.2,1822,2455,0,68.3
0.043952,475.4,366.7,1839.4,81.8,2427.0,88.8,509.5,1846,2464.6,0,67.6
0.045952,466.6,343.1,1885.1,107.1,2463.7,110.7,497.3,1871.1,2474.8,0,66.9
0.047952,463.5,348.5,1949.4,120.0,2516.6,118.8,484.8,1897.1,2485.5,0,66.3
0.049952,460.9,329.2,1997.4,109.0,2557.4,108.5,472.2,1923.5,2496.6,0,65.9
0.051952,457.9,286.3,2018.9,94.2,2579.7,98.0,459.6,1950.1,2508,0,65.7
0.053952,454.6,243.7,2028.1,85.3,2593.0,94.9,447.2,1976.5,2519.5,0,65.5
0.055952,449.8,221.2,2035.6,88.5,2600.5,106.5,435.1,2002.5,2531.1,0,65.4
0.057952,441.2,236.3,2049.4,108.1,2599.1,137.4,423.4,2027.6,2542.6,0,65.2
0.059952,426.5,277.3,2068.0,131.4,2592.8,166.8,412.3,2051.8,2554,0,65.2
0.061952,411.1,293.7,2081.6,142.5,2589.5,179.0,401.8,2074.7,2565.2,100.4,65.1
0.063952,401.7,277.2,2089.0,146.7,2587.8,181.2,392,2096.2,2576,100.9,65.1
0.065952,395.1,255.4,2095.8,157.1,2581.3,181.6,383,2116.1,2586.4,101.6,65.1
0.067952,386.7,242.4,2104.0,182.1,2562.0,177.6,374.7,2134.3,2596.3,102.2,65.2
0.069952,375.4,228.2,2107.7,200.2,2542.1,161.4,367.2,2150.8,2605.7,103,65.3
0.071952,365.2,200.3,2108.2,195.6,2535.3,141.4,360.4,2165.4,2614.4,103.7,65.5
0.073952,358.6,168.9,2111.6,186.1,2538.5,130.5,354.4,2178.3,2622.5,104.6,65.8
0.075952,353.7,143.9,2128.5,177.2,2552.2,134.2,349.1,2189.4,2630,105.4,66.1
0.077952,348.6,127.4,2170.3,149.0,2587.2,154.7,344.3,2198.8,2636.7,106.3,66.4
0.079952,342.3,108.8,2207.7,98.7,2636.4,154.8,340.1,2206.6,2642.8,107.3,66.8
0.081952,335.9,88.0,2223.4,64.4,2667.8,133.0,336.4,2213,2648.2,108.2,67.2
0.083952,330.5,72.9,2228.6,47.6,2682.3,118.1,333.1,2218,2653,109.2,67.6
0.085952,325.9,65.5,2230.0,39.7,2689.8,114.6,330.1,2221.8,2657.1,110.2,68
0.087952,322.9,68.2,2228.6,41.9,2689.2,125.1,327.3,2224.7,2660.6,111.2,68.3
0.089952,321.8,74.1,2225.5,55.4,2681.9,147.4,324.6,2226.7,2663.6,112.2,68.7
0.091952,320.2,72.5,2224.2,70.6,2676.0,173.5,322.1,2228.1,2666.1,113.1,69.1
0.093952,316.5,70.3,2226.5,77.5,2673.7,196.2,319.6,2229,2668.1,114.1,69.5
0.095952,311.3,76.6,2229.5,81.2,2669.2,217.5,317.1,2229.7,2669.7,115,70
0.097952,306.5,92.3,2232.1,85.4,2660.6,235.4,314.5,2230.1,2671.1,115.9,70.5
0.099952,304.1,105.2,2235.8,83.3,2658.0,239.3,311.9,2230.6,2672.1,116.7,71
0.101952,303.2,103.7,2241.4,72.3,2666.1,227.1,309.3,2231.2,2672.9,117.5,71.5
0.103952,301.3,91.0,2246.3,59.1,2679.8,203.7,306.5,2232,2673.6,118.2,72
0.105952,298.6,75.5,2249.3,49.9,2693.7,182.1,303.7,2233,2674.2,118.9,72.5
0.107952,296.8,62.3,2250.5,49.7,2703.2,175.1,300.9,2234.4,2674.7,119.4,73.1
0.109952,295.5,53.7,2253.0,59.6,2704.1,169.5,298.1,2236.2,2675.2,119.9,73.5
0.111952,293.9,49.8,2259.0,72.5,2698.1,155.2,295.3,2238.3,2675.7,120.4,74
0.113952,292.6,49.4,2264.9,80.9,2691.5,143.2,292.7,2240.7,2676.3,120.7,74.4
0.115952,292.8,50.8,2269.0,82.7,2686.0,133.1,290.1,2243.5,2676.9,121,74.7
0.117952,293.4,53.1,2269.4,74.6,2680.4,122.0,287.8,2246.4,2677.6,121.2,75
0.119952,292.4,55.8,2265.6,61.8,2672.2,111.9,285.8,2249.5,2678.3,121.3,75.3
0.121952,290.1,58.1,2260.2,51.6,2664.4,105.8,284,2252.6,2679,121.4,75.6
0.123952,288.7,59.1,2255.7,45.0,2661.1,103.1,282.5,2255.7,2679.7,121.4,75.8
0.125952,288.3,60.4,2252.8,41.6,2662.5,104.1,281.5,2258.5,2680.5,121.3,76
0.127952,287.4,63.6,2251.3,42.2,2667.5,110.7,280.8,2261,2681.1,121.1,76.1
0.129952,286.2,66.0,2249.8,48.3,2675.2,124.1,280.5,2263.1,2681.7,120.9,76.2
0.131952,285.8,63.9,2247.0,59.1,2682.5,137.7,280.6,2264.5,2682,120.7,76.3
0.133952,285.9,59.1,2242.3,71.9,2686.5,145.8,281,2265.3,2682.2,120.4,76.3
0.135952,285.4,56.7,2238.2,79.8,2685.3,148.9,281.9,2265.2,2682.1,120,76.4
0.137952,284.6,58.1,2237.0,79.7,2678.4,149.4,283.1,2264.2,2681.7,119.6,76.4
0.139952,284.6,60.1,2237.3,75.0,2670.8,141.1,284.6,2262.2,2680.9,119.2,76.4
0.141952,285.1,60.3,2238.4,69.2,2668.0,122.6,286.4,2259.1,2679.7,118.8,76.5
0.143952,284.8,60.5,2240.1,65.5,2669.5,100.8,288.4,2254.8,2678.1,118.3,76.5
0.145952,284.1,62.9,2240.7,66.9,2672.3,82.5,290.5,2249.4,2675.9,117.8,76.5
0.147952,284.9,65.8,2236.5,72.8,2673.4,70.3,292.8,2242.8,2673.2,117.4,76.4
0.149952,286.5,65.8,2227.3,76.6,2671.1,62.4,295,2235,2669.9,116.9,76.4
0.151952,287.8,64.9,2217.8,74.9,2664.5,58.1,297.3,2226.1,2666.1,116.4,76.3
0.153952,290.0,67.0,2210.1,73.1,2652.7,57.9,299.4,2216.1,2661.8,115.9,76.3
0.155952,294.6,71.4,2201.1,76.8,2639.3,61.9,301.4,2205.1,2656.9,115.4,76.2
0.157952,299.3,72.0,2189.8,83.4,2631.6,68.6,303.2,2193.2,2651.5,114.9,76.1
0.159952,301.6,68.7,2179.3,85.0,2631.1,78.0,304.8,2180.5,2645.6,114.4,76
0.161952,303.5,66.6,2172.3,80.7,2632.8,95.4,306.1,2167.1,2639.3,113.9,75.9
0.163952,308.1,67.4,2166.7,79.0,2632.1,124.0,307.2,2153.2,2632.6,113.4,75.9
0.165952,313.5,67.9,2158.6,81.4,2630.7,152.3,308,2139,2625.6,112.9,75.8
0.167952,315.2,67.8,2149.4,80.8,2633.7,162.7,308.5,2124.5,2618.5,112.5,75.8
0.169952,314.4,70.9,2142.6,74.6,2638.6,162.6,308.7,2110.1,2611.2,112,75.8
0.171952,314.8,78.7,2135.5,68.5,2639.1,165.3,308.7,2095.8,2603.9,111.6,75.9
0.173952,317.3,85.9,2123.6,65.9,2634.8,169.3,308.4,2081.8,2596.7,111.1,75.9
0.175952,317.6,87.3,2108.2,63.9,2631.0,167.5,308,2068.4,2589.7,110.7,76
0.177952,314.7,86.3,2093.9,61.3,2629.1,163.8,307.4,2055.6,2583,110.3,76
0.179952,311.6,88.5,2079.4,61.4,2620.5,168.9,306.7,2043.7,2576.6,109.9,75.9
0.181952,310.6,94.9,2057.2,65.1,2595.4,182.6,305.9,2032.8,2570.8,109.5,75.9
0.183952,310.1,97.1,2029.0,65.7,2560.5,189.6,305.2,2023,2565.5,109.2,75.8
0.185952,307.1,91.6,2006.4,60.9,2533.0,184.5,304.4,2014.5,2560.9,108.8,75.6
0.187952,302.5,85.7,1992.4,56.4,2520.6,172.7,303.8,2007.4,2557,108.5,75.4
0.189952,298.9,84.0,1982.2,56.5,2521.3,158.4,303.2,2001.8,2553.9,108.1,75.2
0.191952,296.7,84.0,1968.3,64.7,2526.0,146.9,302.8,1997.7,2551.6,107.8,75
0.193952,293.5,79.4,1943.1,80.5,2525.2,140.1,302.5,1995.2,2550.3,107.5,74.7
0.195952,288.1,69.2,1907.6,93.8,2517.9,134.7,302.4,1994.4,2549.8,107.3,74.6
