time,f1,b1,f2,b2,f3,b3,f1p,f2p,f3p,f0,intensity
0.025975,271.2,32.4,1426.9,185.8,2393.6,656.2,309.2,1479,2600.3,125.3,78.1
0.027975,277.3,48.1,1440.7,156.8,2495.1,513.4,311.3,1479.1,2600.5,125.1,77.7
0.029975,286.4,79.2,1454.7,154.2,2561.3,395.4,314.8,1479.3,2600.8,124.8,77.2
0.031975,300.1,132.0,1466.8,163.8,2600.0,326.2,319.6,1479.5,2601.1,124.5,76.7
0.033975,316.5,192.9,1475.5,172.2,2628.9,272.8,325.7,1479.7,2601.4,124.2,76.1
0.035975,331.5,238.8,1480.9,177.7,2652.3,229.8,333,1479.8,2601.7,123.9,75.6
0.037975,345.1,268.4,1486.8,191.5,2666.6,205.7,341.4,1479.7,2601.7,123.6,75.3
0.039975,364.0,292.4,1496.7,225.7,2670.1,204.8,350.8,1479.4,2601.4,123.2,75.1
0.041975,385.1,302.7,1507.5,263.6,2664.4,215.0,361.1,1478.8,2600.7,122.9,75
0.043975,401.0,300.5,1512.7,275.2,2657.4,214.0,372.2,1477.8,2599.4,122.5,74.9
0.045975,413.3,299.3,1512.8,268.4,2653.3,206.6,384,1476.2,2597.6,122.2,74.9
0.047975,427.6,302.6,1509.6,266.6,2648.6,213.2,396.2,1474.1,2594.9,121.8,74.9
0.049975,442.1,299.4,1502.9,274.0,2639.1,241.3,408.9,1471.4,2591.5,121.4,74.8
0.051975,451.1,289.0,1493.6,273.2,2624.2,268.8,421.8,1468,2587.1,121,74.8
0.053975,454.1,282.2,1483.0,261.5,2602.3,273.2,434.8,1463.8,2581.7,120.7,74.8
0.055975,453.2,278.4,1467.4,254.1,2570.8,257.1,447.7,1458.7,2575.3,120.3,74.7
0.057975,454.2,269.9,1447.1,252.9,2540.1,232.0,460.4,1452.9,2567.7,119.9,74.7
0.059975,460.5,256.0,1430.0,247.7,2523.4,210.1,472.8,1446.2,2559.1,119.5,74.6
0.061975,470.0,246.5,1420.9,234.8,2518.4,195.6,484.7,1438.7,2549.3,119.2,74.4
0.063975,483.2,249.4,1416.6,217.6,2516.8,189.2,496,1430.3,2538.5,118.8,74.2
0.065975,501.3,257.2,1410.3,201.2,2511.4,194.8,506.5,1421.1,2526.7,118.4,74
0.067975,518.8,251.7,1399.9,187.6,2500.2,207.1,516.3,1411.2,2513.9,118.1,73.8
0.069975,529.8,234.9,1387.8,176.3,2487.1,216.8,525.1,1400.6,2500.3,117.7,73.7
0.071975,534.0,219.5,1374.2,169.9,2472.1,231.0,533,1389.3,2486,117.4,73.6
0.073975,533.8,207.7,1356.8,167.0,2451.2,261.1,539.7,1377.4,2471.1,117.1,73.5
0.075975,535.4,196.1,1341.3,160.2,2430.5,291.0,545.4,1365,2455.7,116.8,73.5
0.077975,541.3,188.3,1331.7,150.8,2416.1,296.0,549.8,1352.2,2440.1,116.4,73.6
0.079975,548.5,192.7,1325.7,145.7,2406.6,278.2,553.1,1339,2424.2,116.1,73.7
0.081975,552.7,212.5,1318.9,148.1,2395.2,256.5,555.1,1325.4,2408.4,115.8,73.8
0.083975,552.1,233.2,1309.7,152.1,2382.4,242.1,555.9,1311.7,2392.8,115.6,74
0.085975,548.7,236.9,1299.0,150.7,2373.3,234.4,555.4,1297.7,2377.5,115.3,74.2
0.087975,544.5,233.7,1287.6,147.5,2366.2,230.8,553.8,1283.6,2362.6,115,74.4
0.089975,537.0,240.5,1272.9,148.9,2354.0,236.6,551,1269.4,2348.4,114.8,74.6
0.091975,525.9,257.3,1255.7,152.1,2333.8,245.8,547.1,1255.1,2334.9,114.5,74.9
0.093975,518.1,267.2,1242.4,150.4,2316.3,239.4,542.2,1240.7,2322.2,114.3,75
0.095975,515.9,264.3,1234.4,147.7,2308.9,219.8,536.2,1226.2,2310.4,114,75.2
0.097975,514.2,262.2,1228.6,153.8,2308.8,199.4,529.4,1211.7,2299.6,113.8,75.3
0.099975,510.2,278.5,1222.9,181.9,2312.7,185.5,521.8,1197.1,2289.8,113.6,75.3
0.101975,508.6,316.9,1215.6,236.7,2317.1,177.9,513.4,1182.3,2281.1,113.4,75.4
0.103975,512.7,356.1,1203.6,293.5,2318.0,171.4,504.5,1167.4,2273.4,113.1,75.3
0.105975,516.4,377.6,1184.9,323.8,2312.6,163.7,495,1152.3,2266.8,112.9,75.3
0.107975,513.9,392.4,1160.3,332.3,2298.1,156.2,485.1,1137,2261.2,112.7,75.2
0.109975,505.9,420.5,1132.4,334.1,2277.2,148.7,475,1121.4,2256.5,112.5,75.2
0.111975,495.1,455.7,1103.2,325.8,2259.3,139.6,464.6,1105.6,2252.8,112.3,75.1
0.113975,483.3,468.5,1077.8,302.4,2248.4,130.2,454.2,1089.6,2249.9,112.1,75
0.115975,469.4,453.4,1054.6,272.6,2238.8,121.7,443.8,1073.2,2247.8,111.8,74.9
0.117975,454.2,428.6,1031.5,250.7,2227.1,114.7,433.6,1056.7,2246.3,111.6,74.8
0.119975,440.7,413.9,1009.5,239.4,2215.8,107.0,423.6,1039.9,2245.5,111.4,74.6
0.121975,429.3,407.0,992.4,226.8,2210.6,96.7,413.9,1022.9,2245.1,111.1,74.5
0.123975,416.5,398.9,980.3,208.9,2211.5,87.4,404.7,1005.8,2245.2,110.9,74.2
0.125975,400.3,397.3,970.0,199.7,2216.8,86.2,396,988.7,2245.7,110.6,74
0.127975,384.3,418.5,958.2,218.0,2228.1,99.2,387.9,971.6,2246.4,110.3,73.7
0.129975,374.1,462.1,942.4,262.2,2245.0,119.2,380.5,954.7,2247.3,110,73.4
0.131975,365.4,502.1,923.0,297.0,2259.6,128.2,373.7,938.2,2248.4,109.7,73.1
0.133975,349.6,498.3,904.9,287.5,2264.0,127.0,367.8,922.1,2249.6,109.4,72.8
0.135975,330.8,449.7,892.2,247.4,2258.1,129.8,362.7,906.5,2250.9,109,72.5
0.137975,317.5,399.7,885.0,218.7,2247.2,148.5,358.4,891.8,2252.2,108.7,72.2
0.139975,312.9,363.7,883.9,216.7,2240.6,173.3,355,877.9,2253.6,108.3,72
0.141975,316.4,335.3,889.3,235.1,2249.1,153.7,352.5,865.1,2255,108,71.9
0.143975,326.2,331.1,895.4,275.2,2259.4,103.6,350.8,853.5,2256.5,107.6,71.8
0.145975,339.7,361.8,891.6,327.3,2262.8,70.9,350.1,843.2,2258,107.2,71.7
0.147975,350.0,401.1,876.5,357.7,2263.0,53.0,350.1,834.4,2259.6,106.8,71.6
0.149975,353.1,426.7,858.3,353.6,2262.9,42.8,351,827.1,2261.3,106.4,71.5
0.151975,351.7,459.9,842.0,342.8,2264.6,39.3,352.7,821.4,2263.1,106,71.3
0.153975,347.0,520.6,826.5,342.8,2268.4,40.5,355,817.4,2265,105.6,71.1
0.155975,339.7,563.7,816.0,345.5,2271.5,40.7,358.1,815.1,2267.1,105.2,71
0.157975,340.6,552.8,810.6,353.6,2272.8,36.9,361.7,814.5,2269.3,104.8,70.9
0.159975,358.7,516.1,801.9,391.8,2274.4,32.8,365.9,815.5,2271.7,104.4,70.9
0.161975,399.8,455.1,787.9,507.5,2278.2,32.8,370.6,818.1,2274.3,104,70.9
0.163975,434.7,355.0,794.3,713.0,2285.2,37.9,375.6,822.1,2277,103.7,70.9
0.165975,440.8,295.9,818.2,860.4,2292.1,41.3,380.9,827.4,2279.9,103.3,70.9
0.167975,439.3,287.4,824.7,883.5,2294.4,37.6,386.4,833.9,2282.9,0,70.8
0.169975,434.1,304.0,822.8,807.4,2293.1,30.9,392,841.4,2286.1,0,70.5
0.171975,421.9,331.4,833.0,666.3,2291.4,26.1,397.6,849.6,2289.3,0,70.2
0.173975,409.7,361.4,853.1,544.4,2292.2,27.0,403.2,858.3,2292.5,0,69.7
0.175975,409.0,385.5,865.3,489.1,2296.5,33.3,408.7,867.4,2295.6,0,69.3
0.177975,414.0,386.5,869.6,458.3,2300.5,36.8,413.9,876.5,2298.7,0,68.9
0.179975,416.0,375.8,871.7,414.2,2300.8,33.7,418.7,885.5,2301.7,0,68.5
0.181975,413.0,360.1,877.5,349.0,2299.1,27.8,423.2,894,2304.5,0,68
0.183975,408.8,340.9,889.4,281.8,2298.3,23.7,427.3,901.9,2307,0,67.6
0.185975,410.1,321.1,905.7,249.9,2301.0,25.4,430.8,909,2309.3,0,67.3
0.187975,417.5,295.5,922.5,265.5,2309.0,35.3,433.8,915,2311.2,0,67.2
0.189975,422.7,269.1,933.8,281.2,2315.8,45.2,436.1,919.9,2312.7,0,67.1
0.191975,423.3,240.5,940.1,259.4,2315.5,47.9,437.8,923.5,2313.8,0,67
0.193975,423.1,213.1,945.1,214.4,2310.4,45.1,438.8,925.7,2314.5,0,66.8
0.195975,427.5,199.7,953.5,178.3,2304.2,43.0,439.2,926.4,2314.7,0,66.3
