time,f1,b1,f2,b2,f3,b3,f1p,f2p,f3p,f0,intensity
0.025302,323.5,180.7,1083.2,300.6,2203.4,154.8,342.8,1025.3,2169.4,143.4,72.7
0.027302,337.9,166.6,1069.5,259.3,2193.8,108.9,344,1024.8,2171.6,143.3,74.1
0.029302,345.9,143.5,1050.3,225.0,2193.3,82.6,346,1024,2175,143.3,75.2
0.031302,350.9,121.6,1028.7,198.5,2197.3,71.8,348.7,1023,2179.8,143.2,76.1
0.033302,355.6,102.5,1009.0,174.4,2204.7,72.4,352,1021.6,2185.7,143.1,76.9
0.035302,358.6,87.2,996.2,156.1,2219.8,82.4,355.9,1020.1,2192.6,143,77.4
0.037302,361.5,75.8,990.5,138.4,1938.0,3668.2,360.3,1018.3,2200.4,143,77.8
0.039302,366.6,72.0,992.2,123.2,2197.0,3393.2,365.1,1016.4,2209,142.9,78.1
0.041302,373.9,72.7,994.9,111.6,2270.4,62.6,370,1014.4,2218,142.8,78.3
0.043302,380.6,73.6,994.9,103.6,2269.6,48.8,375.1,1012.4,2227.4,142.7,78.5
0.045302,386.2,72.2,993.7,97.9,2268.0,38.5,380.2,1010.3,2236.9,142.6,78.6
0.047302,391.0,70.0,994.1,97.2,2267.8,32.2,385.2,1008.3,2246.4,142.5,78.6
0.049302,395.3,68.4,996.3,103.1,2269.1,28.3,389.9,1006.3,2255.7,142.4,78.6
0.051302,398.9,67.3,997.8,113.4,2271.2,25.4,394.4,1004.4,2264.7,142.3,78.7
0.053302,401.7,65.5,997.6,125.1,2274.3,23.2,398.4,1002.6,2273.1,142.3,78.7
0.055302,403.8,62.1,997.6,140.6,2279.2,22.2,401.9,1000.9,2281,142.2,78.7
0.057302,404.5,58.0,996.4,157.4,2284.9,23.2,404.9,999.4,2288.2,142.1,78.7
0.059302,404.4,54.2,991.7,171.5,2290.0,26.1,407.4,997.9,2294.6,142,78.7
0.061302,404.2,53.2,987.5,183.6,2293.3,30.4,409.2,996.6,2300.3,142,78.7
0.063302,403.8,55.4,987.1,201.2,2296.5,36.1,410.5,995.3,2305.3,141.9,78.7
0.065302,404.0,59.0,989.8,219.8,2299.6,40.9,411.2,994.1,2309.5,141.9,78.7
0.067302,405.6,62.4,995.2,236.9,2301.7,42.1,411.3,992.9,2313,141.8,78.7
0.069302,407.5,64.7,1003.8,253.7,2302.6,40.2,410.9,991.7,2315.9,141.8,78.8
0.071302,409.0,66.7,1013.6,273.1,2305.1,37.4,410.2,990.4,2318.2,141.8,78.9
0.073302,409.7,68.4,1018.9,289.1,2310.7,35.0,409,989,2320.1,141.8,79
0.075302,409.3,70.4,1019.4,300.7,2320.2,33.8,407.6,987.4,2321.7,141.8,79
0.077302,407.3,72.1,1015.8,306.1,2331.2,34.9,405.9,985.6,2323.1,141.8,79.1
0.079302,404.5,73.2,1007.0,305.8,2340.1,37.9,404.1,983.6,2324.3,141.9,79.1
0.081302,402.6,73.7,995.2,301.7,2342.7,43.0,402.3,981.4,2325.5,141.9,79.1
0.083302,400.9,74.4,984.1,296.1,2341.1,51.7,400.5,978.9,2326.7,142,79.2
0.085302,399.1,75.6,975.1,288.6,2338.4,60.4,398.7,976.1,2328.1,142,79.2
0.087302,397.8,76.8,965.2,278.0,2335.8,62.8,397.1,973,2329.7,142.1,79.2
0.089302,396.7,78.1,954.2,263.7,2334.0,59.3,395.7,969.6,2331.5,142.2,79.3
0.091302,395.4,79.3,945.7,249.5,2334.8,55.0,394.4,965.9,2333.6,142.3,79.3
0.093302,394.0,80.4,939.5,236.3,2338.8,51.9,393.4,962,2335.9,142.5,79.4
0.095302,393.2,81.6,935.2,226.2,2344.1,50.6,392.6,957.8,2338.5,142.6,79.4
0.097302,393.1,84.0,933.8,220.0,2349.1,52.5,392.1,953.5,2341.2,142.7,79.4
0.099302,393.2,88.4,935.3,218.9,2352.0,56.0,391.7,949.1,2344,142.8,79.3
0.101302,393.5,93.7,936.2,216.9,2351.5,56.7,391.5,944.6,2346.9,143,79.3
0.103302,393.5,97.3,934.2,209.1,2347.7,54.4,391.4,940.1,2349.8,143.1,79.3
0.105302,393.1,98.7,931.3,197.7,2342.7,52.9,391.4,935.6,2352.6,143.3,79.3
0.107302,392.4,99.0,929.0,188.5,2339.6,53.2,391.3,931.3,2355.1,143.4,79.3
0.109302,391.8,99.3,926.9,180.9,2339.5,53.2,391.3,927.1,2357.3,143.6,79.3
0.111302,391.4,99.6,925.7,174.2,2341.2,52.6,391.1,923.1,2359.2,143.8,79.3
0.113302,390.6,98.7,924.5,166.1,2343.7,52.4,390.8,919.4,2360.5,143.9,79.3
0.115302,389.4,96.2,921.8,156.1,2346.4,51.5,390.2,916.1,2361.3,144,79.3
0.117302,387.8,91.3,917.8,143.6,2350.0,50.2,389.3,913.1,2361.5,144.2,79.3
0.119302,386.0,85.3,914.8,132.4,2354.2,49.8,388.2,910.5,2361,144.3,79.3
0.121302,383.9,80.6,913.0,124.3,2358.3,49.0,386.7,908.3,2359.9,144.4,79.4
0.123302,382.0,79.6,911.8,120.6,2360.8,46.3,384.8,906.5,2358,144.6,79.4
0.125302,380.2,80.7,911.5,119.7,2361.3,43.3,382.5,905.2,2355.5,144.7,79.4
0.127302,377.8,81.1,911.9,118.9,2360.2,41.7,379.8,904.3,2352.4,144.8,79.5
0.129302,375.1,80.6,912.1,117.3,2357.6,41.0,376.8,903.8,2348.6,144.8,79.5
0.131302,372.2,80.0,912.0,115.6,2353.2,39.4,373.4,903.6,2344.3,144.9,79.6
0.133302,369.2,79.5,912.2,114.4,2347.3,36.9,369.6,903.9,2339.6,145,79.6
0.135302,365.7,79.4,912.2,113.5,2341.7,33.3,365.5,904.4,2334.5,145,79.6
0.137302,362.1,81.0,912.2,114.2,2338.5,29.3,361.2,905.2,2329.1,145,79.7
0.139302,358.4,84.4,913.3,119.6,2336.5,25.6,356.6,906.2,2323.6,145,79.7
0.141302,354.8,88.0,915.4,128.1,2334.2,23.7,351.9,907.4,2317.9,145,79.7
0.143302,350.2,89.7,916.3,134.9,2331.2,23.4,347.1,908.8,2312.3,145,79.7
0.145302,344.9,88.1,914.8,136.2,2328.2,24.6,342.2,910.2,2306.7,145,79.7
0.147302,339.0,83.1,911.5,133.5,2324.2,27.5,337.3,911.7,2301.3,144.9,79.6
0.149302,333.3,76.8,908.1,128.7,2318.8,31.2,332.5,913.3,2296.2,144.9,79.6
0.151302,327.5,70.5,905.2,122.7,2311.8,35.2,327.8,914.7,2291.3,144.8,79.6
0.153302,322.4,64.7,903.0,117.7,2304.5,40.8,323.3,916.2,2286.8,144.7,79.6
0.155302,317.7,58.3,900.8,113.5,2293.4,54.0,319,917.6,2282.7,144.6,79.6
0.157302,313.6,52.7,899.0,111.0,2270.6,75.3,314.9,918.8,2279,144.5,79.5
0.159302,310.3,49.2,898.2,112.8,2236.9,88.2,311.1,920,2275.7,144.3,79.5
0.161302,307.6,47.4,898.6,121.0,2202.5,95.3,307.6,921.1,2272.9,144.2,79.4
0.163302,305.1,46.3,899.2,132.8,2176.8,106.0,304.4,922,2270.4,144.1,79.4
0.165302,302.4,44.0,899.6,146.2,2159.2,126.5,301.6,922.8,2268.3,143.9,79.3
0.167302,300.2,41.4,900.2,162.4,2153.4,166.0,299.1,923.5,2266.5,143.8,79.2
0.169302,298.3,39.7,904.1,188.5,2166.4,250.9,297,924.1,2265.1,143.6,79.1
0.171302,296.6,38.5,913.7,221.8,2209.5,393.3,295.3,924.5,2264,143.4,79
0.173302,295.1,36.3,930.8,261.2,2288.0,577.9,293.9,924.9,2263.2,143.3,78.9
0.175302,293.5,33.9,950.6,305.5,2361.5,695.0,293,925.1,2262.6,143.1,78.8
0.177302,290.6,31.7,972.3,365.8,2407.5,734.5,292.4,925.3,2262.3,143,78.8
0.179302,287.0,29.0,992.1,439.9,2420.0,727.4,292.2,925.3,2262.1,142.8,78.8
