time,f1,b1,f2,b2,f3,b3,f1p,f2p,f3p,f0,intensity
0.025111,520.2,294.3,815.8,995.6,2265.6,60.9,497,889.6,2272,172.4,72.6
0.027111,508.8,271.4,856.9,846.0,2269.3,65.9,498,894.3,2273.3,172.4,72.8
0.029111,502.0,240.1,897.9,727.2,2270.6,68.7,499.5,902.1,2275.4,172.4,72.9
0.031111,500.5,208.2,934.7,638.9,2272.2,69.7,501.7,912.8,2278.4,172.4,73.1
0.033111,501.5,182.0,965.2,567.8,2275.7,69.5,504.6,926,2282.1,172.3,73.3
0.035111,504.3,160.2,992.0,503.6,2281.3,69.4,508,941.5,2286.4,172.3,73.5
0.037111,508.4,144.1,1014.4,447.9,2287.9,69.2,511.9,959,2291.4,172.3,73.7
0.039111,512.3,132.2,1032.7,392.0,2294.5,67.4,516.5,978,2296.9,172.3,74
0.041111,515.3,122.7,1045.3,333.5,2300.1,64.2,521.5,998.1,2302.8,172.2,74.2
0.043111,518.5,114.4,1053.5,275.2,2305.6,61.3,527,1018.8,2309.1,172.2,74.4
0.045111,522.5,109.6,1059.4,229.5,2312.7,60.1,533,1039.6,2315.6,172.1,74.6
0.047111,528.0,110.2,1064.9,199.2,2322.9,59.8,539.4,1060.2,2322.3,172,74.7
0.049111,534.4,115.7,1069.5,182.9,2335.9,58.1,546.1,1080,2329,172,74.9
0.051111,541.8,126.2,1073.5,176.4,2349.5,52.8,553.2,1098.5,2335.6,171.9,75
0.053111,550.2,141.6,1077.3,179.7,2359.5,45.2,560.5,1115.5,2342.2,171.8,75
0.055111,560.2,160.1,1081.8,191.6,2365.0,38.5,568,1130.5,2348.5,171.7,75
0.057111,571.6,178.2,1086.2,211.5,2367.9,34.1,575.6,1143.2,2354.5,171.6,74.9
0.059111,585.2,197.3,1090.8,246.1,2370.3,31.9,583.3,1153.3,2360.3,171.4,74.8
0.061111,600.8,212.3,1096.3,299.0,2372.5,31.0,591,1160.7,2365.6,171.3,74.6
0.063111,615.8,214.0,1103.5,362.7,2374.6,30.8,598.6,1165.3,2370.6,171.2,74.4
0.065111,628.1,201.2,1112.6,437.4,2377.2,31.5,606.1,1167,2375.1,171,74.2
0.067111,636.5,180.8,1122.6,525.4,2380.0,33.4,613.4,1165.7,2379.2,170.8,74
0.069111,641.6,159.0,1134.0,622.6,2382.5,36.3,620.4,1161.6,2382.8,170.7,73.9
0.071111,644.4,141.5,1146.6,703.1,2384.4,39.4,627,1154.9,2386.1,170.5,73.8
0.073111,646.2,128.8,1162.3,765.0,2386.4,42.5,633.2,1145.6,2389,170.3,73.8
0.075111,647.7,120.5,1177.2,811.3,2388.4,45.7,638.8,1134.1,2391.6,170.1,73.8
0.077111,648.1,115.0,1180.9,841.1,2390.4,50.1,643.9,1120.6,2393.9,169.9,73.9
0.079111,647.1,111.1,1170.7,849.5,2392.8,55.9,648.4,1105.5,2396,169.7,74
0.081111,645.1,108.1,1152.8,834.3,2395.4,62.6,652.2,1089.1,2397.9,169.5,74.1
0.083111,642.7,105.6,1134.0,800.7,2397.4,69.1,655.2,1071.7,2399.7,169.2,74.2
0.085111,639.9,103.4,1113.8,759.8,2398.4,75.4,657.4,1053.8,2401.5,169,74.3
0.087111,637.4,102.0,1089.8,726.8,2397.8,81.9,658.7,1035.7,2403.3,168.7,74.4
0.089111,635.7,101.3,1058.4,719.2,2395.0,91.0,659.2,1017.6,2405.1,168.5,74.4
0.091111,635.7,100.8,1020.4,754.2,2390.4,102.9,658.8,1000.1,2407,168.2,74.4
0.093111,637.8,100.3,979.8,825.1,2387.5,114.3,657.5,983.2,2409.1,167.9,74.4
0.095111,640.3,100.2,949.2,893.8,2389.3,120.6,655.3,967.4,2411.4,167.6,74.4
0.097111,641.4,101.3,934.9,928.0,2394.9,121.0,652.2,952.8,2413.9,167.3,74.3
0.099111,641.1,103.3,930.9,933.3,2402.8,118.4,648.1,939.5,2416.6,166.9,74.2
0.101111,641.0,105.1,922.7,957.0,2412.6,117.3,643.2,927.7,2419.4,166.6,74
0.103111,641.6,105.5,903.7,1031.2,2424.9,117.9,637.5,917.5,2422.5,166.2,73.9
0.105111,641.7,104.7,884.2,1144.6,2438.2,116.1,630.9,908.8,2425.7,165.9,73.7
0.107111,640.1,105.9,880.9,1237.6,2449.9,108.9,623.6,901.7,2429.1,165.5,73.6
0.109111,636.6,111.6,882.1,1212.7,2457.3,100.2,615.6,896.1,2432.5,165.1,73.4
0.111111,631.2,123.3,869.9,1076.6,2460.8,93.9,606.9,891.7,2435.9,164.6,73.3
0.113111,623.9,140.9,850.4,912.2,2461.2,91.9,597.7,888.6,2439.3,164.2,73.2
0.115111,613.0,162.7,838.1,757.4,2459.6,92.6,588,886.6,2442.5,163.7,73.1
0.117111,596.2,182.3,841.5,620.9,2457.0,93.7,577.8,885.3,2445.6,163.3,72.9
0.119111,574.2,192.5,857.2,506.8,2453.1,94.9,567.3,884.8,2448.3,162.8,72.8
0.121111,554.4,193.1,872.1,431.5,2450.1,97.2,556.5,884.7,2450.7,162.3,72.7
0.123111,538.0,193.0,879.3,383.1,2450.5,103.4,545.5,884.8,2452.6,161.8,72.5
0.125111,524.2,197.1,880.2,352.3,2453.3,114.5,534.5,885.1,2453.9,161.3,72.4
0.127111,511.1,204.1,880.0,327.5,2454.7,125.4,523.4,885.2,2454.7,160.7,72.3
0.129111,499.2,208.6,884.0,303.3,2451.7,124.4,512.3,885.2,2454.8,160.2,72.3
0.131111,489.5,210.0,892.1,283.1,2445.7,111.1,501.4,884.8,2454.1,159.6,72.3
0.133111,482.1,209.4,900.3,270.6,2440.2,97.6,490.7,884.1,2452.7,159,72.4
0.135111,473.8,204.0,905.5,260.1,2438.7,89.0,480.2,883.1,2450.5,158.4,72.5
0.137111,463.6,195.4,904.1,253.7,2442.0,83.7,470.1,881.6,2447.4,157.8,72.6
0.139111,454.4,188.6,897.4,258.9,2446.0,77.1,460.3,879.9,2443.5,157.2,72.7
0.141111,446.8,182.5,888.5,278.6,2448.0,68.5,450.9,877.9,2438.7,156.6,72.9
0.143111,440.1,171.3,881.9,301.0,2446.6,63.1,442,875.9,2433.1,156,73.1
0.145111,433.1,153.6,879.0,312.3,2440.8,64.4,433.5,874,2426.7,155.4,73.4
0.147111,426.3,134.5,881.0,317.8,2429.8,70.5,425.6,872.4,2419.5,154.7,73.6
0.149111,419.9,116.0,890.6,333.6,2413.6,78.5,418.2,871.2,2411.7,154.1,73.9
0.151111,414.9,102.3,906.9,365.4,2395.4,87.4,411.3,870.8,2403.2,153.4,74.1
0.153111,410.5,92.2,918.7,394.1,2376.2,99.1,405,871.3,2394.1,152.8,74.3
0.155111,404.0,81.0,911.1,390.9,2359.7,113.4,399.3,873,2384.5,152.1,74.5
0.157111,395.1,67.2,890.9,353.4,2344.6,128.1,394,876.1,2374.5,151.5,74.6
0.159111,387.7,56.0,877.4,313.0,2328.5,135.5,389.3,880.7,2364.2,150.8,74.8
0.161111,382.7,50.1,876.1,297.2,2316.6,135.5,385.1,887.1,2353.6,150.1,74.9
0.163111,379.5,48.3,886.5,309.5,2313.9,132.6,381.3,895.3,2342.9,149.5,75
0.165111,377.1,48.9,905.3,337.7,2318.2,122.9,378,905.5,2332.2,148.8,75.1
0.167111,375.7,51.3,924.6,362.4,2324.2,106.9,375.2,917.6,2321.5,148.2,75.1
0.169111,374.5,54.0,940.7,369.1,2329.6,94.3,372.7,931.8,2310.9,147.5,75.2
0.171111,373.0,55.2,952.6,356.6,2332.7,88.4,370.7,947.8,2300.5,146.9,75.1
0.173111,371.4,55.8,965.3,335.9,2330.4,82.1,368.9,965.6,2290.4,146.2,75.1
0.175111,369.8,56.9,981.9,307.2,2320.2,70.5,367.5,985.1,2280.6,145.6,75
0.177111,367.6,56.6,994.5,265.4,2305.1,60.8,366.3,1005.9,2271.2,145,74.9
0.179111,365.2,52.6,999.1,216.8,2286.8,58.3,365.4,1028,2262.3,144.4,74.7
0.181111,363.9,46.2,1001.9,174.6,2269.0,64.2,364.6,1050.8,2253.9,143.8,74.5
0.183111,364.2,40.5,1013.1,143.7,2254.4,76.7,364.1,1074.1,2246.1,143.2,74.4
0.185111,365.7,36.7,1033.3,124.5,2243.7,90.2,363.7,1097.6,2238.8,142.6,74.2
0.187111,368.1,34.2,1058.1,111.3,2234.5,97.1,363.4,1120.8,2232.1,142.1,74.1
0.189111,370.4,32.9,1084.3,104.1,2226.6,95.9,363.3,1143.3,2226,141.6,74
0.191111,371.3,32.9,1112.8,104.3,2220.2,95.3,363.2,1164.8,2220.6,141.1,73.9
0.193111,370.1,33.4,1141.4,110.0,2215.0,97.5,363.1,1184.8,2215.8,140.6,73.9
0.195111,367.8,34.2,1171.8,119.2,2209.2,100.0,363.2,1203,2211.6,140.2,73.9
0.197111,365.3,35.3,1204.5,131.3,2202.5,102.3,363.2,1219.1,2208.1,139.7,74
0.199111,362.2,36.5,1240.4,147.2,2196.0,106.3,363.2,1232.6,2205.2,139.3,74.1
0.201111,359.1,37.6,1275.4,166.0,2191.8,107.9,363.3,1243.5,2203,138.9,74.2
0.203111,356.1,39.9,1313.6,189.3,2189.0,100.0,363.3,1251.4,2201.4,138.6,74.4
0.205111,353.3,42.6,1358.3,212.0,2184.4,84.3,363.3,1256.2,2200.5,138.3,74.5
0.207111,350.7,43.7,1403.7,226.7,2177.2,68.8,363.3,1257.8,2200.1,137.9,74.7
