time,f1,b1,f2,b2,f3,b3,f1p,f2p,f3p,f0,intensity
0.025336,315.3,86.7,1408.0,232.6,2112.8,575.1,423.4,1359.7,2205,146.6,79.6
0.027336,326.6,115.4,1377.5,183.8,2138.8,543.1,424.6,1359.6,2206.5,146.4,79.6
0.029336,336.8,148.7,1360.2,158.5,2147.5,514.7,426.6,1359.5,2209,146.2,79.5
0.031336,347.6,184.6,1349.3,145.7,2139.7,488.7,429.3,1359.2,2212.5,146,79.5
0.033336,364.0,221.3,1343.4,138.1,2129.1,468.6,432.7,1358.9,2217,145.8,79.4
0.035336,386.1,251.6,1343.0,134.7,2133.5,463.4,436.9,1358.5,2222.3,145.6,79.3
0.037336,412.0,279.0,1346.9,136.5,2162.9,474.5,441.7,1358.1,2228.5,145.4,79.2
0.039336,440.6,305.4,1354.1,143.4,2215.4,486.4,447.1,1357.5,2235.4,145.2,79
0.041336,474.5,324.0,1363.1,149.8,2282.3,470.7,453,1356.7,2243,144.9,78.8
0.043336,508.0,317.8,1369.8,147.2,2333.6,414.4,459.4,1355.9,2251.3,144.7,78.5
0.045336,534.5,286.8,1371.3,136.7,2355.0,344.9,466.2,1354.8,2260,144.5,78.2
0.047336,554.7,244.7,1368.0,124.2,2357.5,268.6,473.3,1353.6,2269.1,144.3,78
0.049336,568.9,211.3,1361.6,115.0,2353.6,196.7,480.7,1352.3,2278.6,144.1,77.8
0.051336,578.8,194.4,1354.2,110.4,2352.7,146.1,488.3,1350.7,2288.3,143.9,77.7
0.053336,585.3,197.7,1348.4,111.3,2358.0,119.7,496,1348.8,2298.1,143.7,77.6
0.055336,589.5,218.6,1344.4,115.1,2367.6,103.7,503.7,1346.8,2307.9,143.5,77.7
0.057336,591.8,241.2,1340.6,115.4,2376.4,91.3,511.4,1344.4,2317.6,143.4,77.8
0.059336,591.4,253.8,1334.9,111.1,2382.3,82.7,518.9,1341.8,2327.1,143.2,77.9
0.061336,587.8,260.8,1328.1,105.9,2385.0,80.3,526.3,1338.8,2336.4,143,78.1
0.063336,581.8,265.8,1320.6,101.4,2385.7,83.4,533.3,1335.5,2345.2,142.9,78.2
0.065336,574.0,263.7,1313.5,98.3,2385.4,88.9,540.1,1331.9,2353.6,142.7,78.3
0.067336,564.0,258.5,1306.9,98.5,2384.2,94.6,546.4,1327.9,2361.4,142.5,78.4
0.069336,554.5,258.4,1301.3,102.6,2382.4,97.5,552.2,1323.5,2368.6,142.4,78.5
0.071336,547.1,261.4,1296.4,108.5,2381.5,95.5,557.6,1318.7,2375,142.3,78.6
0.073336,541.7,261.8,1292.4,114.5,2380.5,91.3,562.4,1313.5,2380.8,142.1,78.7
0.075336,536.8,262.2,1289.4,123.3,2377.0,89.0,566.5,1307.9,2385.7,142,78.7
0.077336,533.9,266.5,1287.6,135.3,2372.6,88.3,570.1,1301.9,2389.7,141.8,78.8
0.079336,533.8,272.3,1286.3,151.4,2369.6,87.4,573,1295.4,2392.9,141.7,78.8
0.081336,534.1,277.9,1285.8,173.9,2367.2,88.4,575.2,1288.5,2395.1,141.5,78.9
0.083336,533.5,282.5,1285.8,202.4,2364.1,92.5,576.7,1281.1,2396.4,141.4,79
0.085336,532.6,282.0,1283.7,233.6,2361.1,97.6,577.5,1273.3,2396.9,141.2,79
0.087336,532.2,278.7,1278.7,264.9,2360.3,100.3,577.6,1265.1,2396.4,141,79
0.089336,533.0,282.2,1273.8,303.2,2362.8,99.8,577.1,1256.4,2395,140.9,79
0.091336,536.2,294.3,1270.0,343.3,2367.1,97.1,575.9,1247.3,2392.7,140.7,79
0.093336,540.8,307.8,1262.7,376.7,2370.1,94.9,574.1,1237.8,2389.6,140.5,79
0.095336,544.1,319.9,1249.4,403.2,2367.8,97.7,571.6,1227.9,2385.7,140.3,79
0.097336,546.1,333.7,1232.7,425.7,2359.3,106.3,568.6,1217.6,2381,140.1,79
0.099336,548.0,346.2,1215.9,436.2,2348.4,114.8,565,1207,2375.7,139.9,79.1
0.101336,550.6,356.6,1199.3,437.1,2338.5,120.0,561,1196,2369.8,139.7,79.1
0.103336,551.9,367.0,1183.8,433.1,2330.9,124.1,556.5,1184.7,2363.3,139.4,79.1
0.105336,550.1,374.1,1168.5,417.4,2325.3,129.9,551.6,1173.1,2356.3,139.2,79.1
0.107336,545.6,371.7,1153.7,388.9,2322.2,137.3,546.4,1161.3,2348.9,138.9,79.1
0.109336,538.8,362.2,1138.8,356.9,2318.2,149.2,540.9,1149.3,2341.2,138.6,79.1
0.111336,531.5,354.2,1125.6,334.4,2309.0,166.1,535.2,1137.1,2333.2,138.3,79.1
0.113336,526.9,352.3,1115.4,323.1,2297.7,178.7,529.3,1124.7,2325,138,79.1
0.115336,524.3,352.2,1107.5,318.6,2292.2,183.2,523.2,1112.2,2316.7,137.7,79
0.117336,521.7,350.6,1102.9,326.6,2298.3,184.9,517.1,1099.6,2308.4,137.4,78.9
0.119336,519.7,349.6,1101.3,355.3,2315.3,186.0,510.9,1087,2300.1,137,78.8
0.121336,519.2,349.7,1098.8,394.9,2335.6,181.1,504.8,1074.4,2292,136.7,78.8
0.123336,518.2,349.0,1091.7,430.6,2351.1,168.4,498.8,1061.9,2284,136.3,78.7
0.125336,516.3,347.4,1083.0,461.9,2352.7,154.2,492.8,1049.5,2276.3,136,78.7
0.127336,515.6,349.3,1074.0,502.2,2337.4,143.0,487,1037.1,2268.8,135.6,78.6
0.129336,514.3,359.6,1055.1,540.0,2311.6,133.9,481.4,1025,2261.7,135.2,78.6
0.131336,510.7,384.2,1021.7,570.1,2282.7,123.7,476,1013,2255,134.8,78.6
0.133336,505.4,413.4,984.8,589.3,2257.9,114.4,470.8,1001.4,2248.7,134.4,78.6
0.135336,495.0,425.4,955.6,571.6,2239.2,107.3,465.9,990,2242.8,134,78.7
0.137336,478.1,413.8,940.6,507.5,2225.2,101.9,461.3,978.9,2237.5,133.5,78.7
0.139336,460.1,388.8,934.1,429.1,2213.1,98.0,456.9,968.1,2232.6,133.1,78.8
0.141336,449.7,371.2,929.4,379.2,2204.5,96.9,452.8,957.8,2228.3,132.7,78.8
0.143336,447.6,374.4,922.8,362.8,2202.7,97.5,449.1,947.9,2224.4,132.2,78.9
0.145336,449.4,393.6,913.8,363.9,2207.9,99.5,445.6,938.4,2221.1,131.8,78.9
0.147336,451.4,411.7,904.8,367.5,2218.7,105.2,442.4,929.4,2218.3,131.3,78.9
0.149336,451.9,406.5,901.6,362.5,2232.3,113.0,439.5,920.9,2216,130.9,78.9
0.151336,449.7,379.6,904.2,343.3,2243.1,114.6,436.8,912.9,2214.2,130.4,78.9
0.153336,444.1,341.9,907.5,313.5,2246.2,107.8,434.4,905.4,2212.8,129.9,78.9
0.155336,437.0,304.0,907.1,287.4,2240.9,98.2,432.3,898.5,2211.9,129.5,79
0.157336,429.9,271.9,902.6,268.7,2231.1,88.3,430.4,892.1,2211.4,129,79
0.159336,423.7,252.3,895.6,256.0,2222.2,77.5,428.6,886.3,2211.3,128.5,79
0.161336,417.0,246.2,887.5,249.5,2215.2,66.7,427.1,881,2211.5,128,79
0.163336,410.2,250.0,880.6,249.5,2209.2,58.3,425.7,876.3,2212.1,127.5,78.9
0.165336,405.0,256.2,875.9,251.0,2203.8,52.3,424.4,872.1,2212.9,127,78.9
0.167336,401.7,262.6,873.0,248.6,2200.1,48.0,423.3,868.5,2214,126.5,78.9
0.169336,398.6,266.6,872.2,240.7,2197.9,45.6,422.3,865.4,2215.4,126,78.9
0.171336,395.9,261.4,873.9,229.9,2196.9,46.4,421.3,862.8,2216.9,125.4,78.8
0.173336,395.1,250.9,874.4,222.6,2197.6,48.4,420.4,860.7,2218.6,124.9,78.8
0.175336,397.0,244.1,871.7,222.7,2201.1,48.4,419.6,859.1,2220.4,124.3,78.7
0.177336,400.4,239.9,867.4,232.0,2208.1,48.2,418.8,858,2222.3,123.7,78.6
0.179336,402.6,230.0,865.1,248.1,2216.9,50.9,418,857.3,2224.3,123.1,78.5
0.181336,402.2,211.9,865.3,265.7,2223.9,54.8,417.2,857,2226.3,122.5,78.4
0.183336,401.2,194.4,863.7,286.6,2224.9,54.6,416.4,857.1,2228.4,121.9,78.2
0.185336,402.3,182.2,856.0,327.7,2220.4,49.4,415.6,857.6,2230.5,121.3,78.1
0.187336,406.6,175.9,842.7,398.6,2215.9,42.6,414.8,858.4,2232.6,120.6,77.9
0.189336,411.0,171.7,832.3,473.9,2216.2,36.8,413.9,859.5,2234.7,119.9,77.8
0.191336,413.5,168.9,831.0,535.4,2220.6,32.0,413.1,860.9,2236.8,119.2,77.6
0.193336,415.0,169.9,840.3,600.4,2227.0,29.6,412.2,862.5,2238.8,118.5,77.4
0.195336,416.7,172.0,856.6,699.9,2233.4,29.9,411.4,864.3,2240.8,117.8,77.2
0.197336,417.6,171.2,868.9,809.7,2237.3,30.2,410.5,866.3,2242.8,117,76.9
0.199336,417.8,172.0,872.6,897.6,2239.1,28.9,409.7,868.4,2244.7,116.3,76.6
0.201336,418.0,181.9,879.3,953.8,2240.7,27.8,408.8,870.7,2246.6,115.5,76.3
0.203336,418.2,200.1,902.4,989.9,2243.7,29.9,408,873,2248.5,114.7,75.9
0.205336,419.0,211.9,927.4,1021.7,2248.3,36.1,407.2,875.4,2250.3,113.9,75.5
0.207336,421.0,211.5,931.0,1021.8,2253.1,43.2,406.5,877.9,2252.1,113.1,75
0.209336,423.6,208.8,912.6,912.6,2256.0,44.7,405.8,880.3,2253.9,112.2,74.6
0.211336,427.5,207.0,902.8,727.6,2257.2,41.7,405.1,882.8,2255.7,111.4,74.1
0.213336,435.2,201.0,904.6,596.3,2258.2,38.9,404.6,885.2,2257.5,110.5,73.7
0.215336,444.2,195.5,901.2,533.7,2260.1,35.1,404.1,887.5,2259.3,109.7,73.4
0.217336,448.9,198.8,886.7,487.7,2263.6,28.8,403.6,889.8,2261.2,108.8,73.3
0.219336,445.2,216.4,869.9,415.4,2269.5,23.2,403.3,892.1,2263,108,73.2
0.221336,428.3,256.0,861.2,328.0,2278.6,20.9,403.1,894.2,2264.8,107.1,73.2
0.223336,400.3,315.5,861.9,269.4,2288.8,22.1,402.9,896.2,2266.7,106.3,73.2
0.225336,373.3,362.7,866.7,236.7,2294.8,24.0,402.8,898.1,2268.6,105.5,73.2
0.227336,362.5,359.1,873.9,214.0,2293.7,24.4,402.9,899.9,2270.4,104.6,73.1
0.229336,370.5,312.4,884.7,194.2,2289.0,23.9,403,901.6,2272.3,103.8,73
0.231336,387.0,266.2,896.8,182.2,2287.6,25.4,403.2,903.1,2274.3,103.1,72.8
0.233336,397.9,246.1,904.9,177.8,2293.4,29.8,403.5,904.5,2276.2,102.3,72.6
0.235336,398.0,241.9,905.1,170.5,2300.7,32.4,403.9,905.8,2278.1,101.5,72.4
0.237336,392.0,246.5,899.7,160.3,2301.2,31.2,404.3,907,2280,100.8,72.2
0.239336,385.5,279.7,892.9,167.1,2295.0,30.1,404.8,908,2281.8,100.1,72.1
0.241336,383.1,370.7,885.7,216.6,2290.1,33.1,405.4,909,2283.7,99.5,72.1
0.243336,387.1,460.9,877.8,281.8,2290.1,35.7,405.9,909.8,2285.5,98.8,72.1
0.245336,394.4,469.3,880.2,305.1,2290.6,32.7,406.5,910.5,2287.2,98.2,72.1
0.247336,399.1,434.6,891.8,278.9,2290.4,26.2,407.1,911.2,2288.9,97.7,71.9
0.249336,402.6,412.9,904.6,237.5,2290.7,20.1,407.8,911.7,2290.4,97.1,71.7
0.251336,405.8,439.8,915.2,215.6,2292.3,17.6,408.4,912.2,2291.9,96.6,71.4
0.253336,405.8,526.9,920.2,224.5,2294.0,19.0,408.9,912.6,2293.2,96.2,71
0.255336,405.9,596.4,918.4,241.0,2293.3,20.8,409.5,912.9,2294.5,95.8,70.8
0.257336,411.1,602.8,916.6,239.6,2290.3,19.8,410,913.2,2295.6,95.4,70.6
0.259336,417.2,565.9,918.2,219.0,2286.8,16.7,410.4,913.4,2296.5,95,70.5
0.261336,421.3,499.1,923.2,194.6,2283.7,13.7,410.8,913.6,2297.3,94.7,70.5
0.263336,423.0,406.5,931.1,187.5,2281.0,12.8,411.1,913.7,2297.9,94.4,70.5
0.265336,423.9,329.3,939.3,202.5,2277.9,15.3,411.3,913.8,2298.4,94.1,70.6
0.267336,424.5,276.2,945.7,212.1,2273.3,19.7,411.4,913.9,2298.6,93.9,70.7
0.269336,423.5,235.7,949.6,194.5,2269.2,21.7,411.4,913.9,2298.7,93.7,70.9
