time,f1,b1,f2,b2,f3,b3,f1p,f2p,f3p,f0,intensity
0.025027,300.3,114.7,867.9,458.8,2415.1,16.4,317.5,849.5,2402.8,126.3,79.2
0.027027,307.3,130.1,856.9,440.1,2412.1,13.9,319.4,851.5,2403.2,126.6,78.9
0.029027,314.7,156.2,852.0,433.0,2407.0,12.7,322.5,854.6,2403.8,126.9,78.6
0.031027,324.5,188.0,850.5,446.9,2401.1,13.1,326.6,858.8,2404.5,127.3,78.3
0.033027,334.9,212.8,852.4,478.1,2397.6,14.9,331.4,863.9,2405.4,127.7,78.1
0.035027,344.5,232.1,860.5,516.8,2397.5,18.6,336.8,869.7,2406.3,128.1,78
0.037027,353.1,247.4,874.5,542.4,2399.6,24.9,342.4,876.1,2407.1,128.6,78
0.039027,360.3,251.4,886.8,538.8,2402.0,30.9,348,882.7,2407.9,129.1,78.1
0.041027,365.4,246.6,893.0,513.9,2404.8,31.4,353.4,889.4,2408.4,129.6,78.2
0.043027,368.7,245.3,895.3,485.2,2408.5,27.3,358.2,896,2408.7,130.1,78.3
0.045027,370.4,250.9,899.3,459.3,2412.0,22.8,362.4,902.5,2408.7,130.7,78.5
0.047027,370.8,256.2,905.5,435.6,2413.2,19.8,365.8,908.7,2408.4,131.3,78.7
0.049027,370.3,256.8,912.0,414.3,2411.8,18.2,368.4,914.7,2407.9,132,78.9
0.051027,368.9,257.0,920.4,398.4,2408.8,18.0,370.3,920.4,2407,132.7,79.1
0.053027,366.9,260.7,931.6,389.4,2405.0,19.6,371.6,926,2405.9,133.4,79.2
0.055027,364.9,262.3,940.6,377.0,2401.6,22.2,372.3,931.5,2404.6,134.1,79.4
0.057027,363.0,254.6,944.7,352.9,2401.2,23.4,372.8,937.2,2403.2,134.8,79.5
0.059027,362.0,243.9,947.4,328.0,2403.9,22.3,373.3,943.1,2401.8,135.6,79.6
0.061027,363.1,241.9,950.7,317.0,2405.4,20.7,373.9,949.4,2400.5,136.3,79.7
0.063027,366.6,248.2,953.1,318.9,2403.5,19.8,375.1,956.3,2399.2,137.1,79.7
0.065027,371.8,246.5,957.1,322.3,2399.8,19.6,376.9,963.8,2398.2,137.9,79.7
0.067027,377.7,225.8,966.6,321.2,2395.5,20.8,379.6,972,2397.4,138.7,79.7
0.069027,383.4,199.2,977.1,317.0,2392.0,23.5,383.2,980.8,2396.8,139.5,79.7
0.071027,390.8,182.8,984.8,320.3,2391.6,26.7,387.9,990.3,2396.6,140.3,79.8
0.073027,399.9,183.2,994.7,344.1,2396.0,27.3,393.5,1000.1,2396.6,141,79.8
0.075027,409.6,190.5,1012.2,383.5,2401.1,25.9,400,1010.2,2396.9,141.8,79.9
0.077027,418.4,198.2,1029.0,422.8,2402.8,25.4,407.2,1020.3,2397.3,142.6,80
0.079027,425.9,202.2,1037.3,452.6,2401.9,27.3,414.8,1030.1,2397.9,143.4,80.1
0.081027,431.7,198.8,1042.1,471.1,2400.2,32.4,422.5,1039.2,2398.5,144.1,80.3
0.083027,435.4,189.9,1046.6,475.7,2398.1,40.2,430,1047.3,2399,144.8,80.5
0.085027,437.4,179.8,1047.9,461.0,2395.5,46.9,437,1054.1,2399.5,145.5,80.7
0.087027,437.4,167.6,1049.2,430.9,2392.6,49.8,443,1059.3,2399.7,146.2,80.9
0.089027,437.1,155.5,1054.5,404.3,2391.1,50.2,447.9,1062.6,2399.6,146.9,81
0.091027,439.2,150.3,1061.5,395.4,2392.0,49.6,451.2,1063.9,2399.1,147.5,81.2
0.093027,444.2,154.1,1068.1,401.2,2394.5,48.3,452.8,1063.1,2398.4,148.1,81.3
0.095027,450.0,163.9,1074.3,409.2,2397.0,47.8,452.6,1060.1,2397.2,148.7,81.4
0.097027,453.7,175.6,1074.2,406.8,2398.8,48.9,450.4,1055.1,2395.7,149.3,81.4
0.099027,452.9,183.1,1060.6,383.1,2399.9,50.5,446.4,1048.2,2393.9,149.8,81.4
0.101027,446.0,181.0,1040.7,339.4,2400.8,52.6,440.5,1039.6,2391.8,150.3,81.4
0.103027,434.5,170.3,1024.4,291.7,2401.6,58.3,433,1029.6,2389.6,150.7,81.3
0.105027,422.1,157.2,1010.9,251.0,2401.4,71.6,424.1,1018.6,2387.4,151.1,81.3
0.107027,410.1,144.0,996.3,214.5,2397.2,92.9,414.2,1006.9,2385.2,151.5,81.2
0.109027,398.1,127.0,981.5,176.9,2384.3,112.3,403.4,995,2383.1,151.9,81.1
0.111027,387.0,108.4,970.2,141.6,2368.1,115.7,392.2,983.2,2381.3,152.2,80.9
0.113027,377.6,94.2,962.4,114.3,2360.7,106.9,380.9,971.9,2379.8,152.4,80.8
0.115027,368.9,84.2,956.4,94.7,2361.6,97.4,369.8,961.4,2378.7,152.7,80.6
0.117027,360.7,77.0,951.9,82.4,2366.6,91.0,359.1,951.9,2378,152.9,80.4
0.119027,352.8,72.8,949.3,76.2,2373.6,87.6,349.2,943.6,2377.7,153,80.1
0.121027,345.0,70.9,948.0,74.2,2381.5,85.4,340.1,936.6,2377.9,153.1,79.8
0.123027,337.6,69.1,946.4,74.9,2387.5,84.9,332.1,931,2378.4,153.2,79.3
0.125027,331.4,65.9,942.4,75.9,2389.1,93.1,325.1,926.6,2379.2,153.3,78.8
0.127027,325.7,62.9,934.9,74.8,2387.0,117.7,319.1,923.3,2380.3,153.3,78.2
0.129027,319.7,62.8,926.1,72.1,2385.1,150.3,314.2,921.1,2381.6,153.3,77.5
0.131027,313.8,65.4,917.9,68.5,2387.6,170.5,310.3,919.6,2382.8,153.3,76.6
0.133027,309.2,69.8,911.6,64.7,2391.5,165.5,307.3,918.8,2384,153.3,75.7
0.135027,304.7,77.1,908.0,63.3,2389.8,143.4,305.1,918.4,2385.1,153.2,74.6
0.137027,298.8,86.6,907.9,68.1,2381.9,122.4,303.5,918.3,2385.9,153.1,73.4
0.139027,293.7,95.9,912.2,83.4,2376.0,116.1,302.7,918.2,2386.4,153,72.1
0.141027,292.7,104.9,922.1,114.3,2379.3,130.0,302.4,918.2,2386.6,152.9,70.8
