time,f1,b1,f2,b2,f3,b3,f1p,f2p,f3p,f0,intensity
0.025283,329.7,163.7,938.7,368.6,2267.6,344.8,336.2,925.1,2234.2,136.8,67.6
0.027283,336.3,134.5,932.6,315.0,2234.0,251.1,338.3,927.5,2237,136.8,69.3
0.029283,342.5,119.2,937.9,278.0,2228.2,177.5,341.7,931.4,2241.6,136.9,70.7
0.031283,348.2,110.1,945.5,238.8,2238.4,136.9,346.3,936.7,2247.9,137,72
0.033283,354.1,102.3,948.5,201.2,2253.3,116.0,351.9,943.1,2255.6,137,73.2
0.035283,359.9,92.2,946.4,171.8,2265.1,102.9,358.3,950.3,2264.7,137,74.2
0.037283,365.5,82.7,944.5,156.4,2272.2,91.3,365.1,958.2,2274.7,137.1,75
0.039283,372.1,75.4,946.7,153.9,2279.3,81.5,372.2,966.4,2285.5,137.1,75.8
0.041283,379.5,70.1,954.7,162.5,2290.1,79.0,379.3,974.5,2296.8,137,76.4
0.043283,386.7,66.3,966.8,177.3,2305.3,85.7,386.1,982.4,2308.2,137,76.8
0.045283,392.8,64.2,978.2,191.7,2320.7,96.8,392.3,989.6,2319.6,136.9,77.2
0.047283,398.9,63.4,991.9,208.4,2335.2,107.0,397.9,996,2330.7,136.8,77.5
0.049283,405.1,63.8,1009.4,227.1,2348.6,111.6,402.6,1001.2,2341.2,136.7,77.8
0.051283,409.3,63.8,1023.2,240.9,2358.0,109.3,406.4,1005.2,2351,136.6,77.9
0.053283,411.1,62.5,1027.3,247.1,2362.9,105.6,409.1,1007.9,2360,136.4,78
0.055283,410.8,61.1,1024.4,247.4,2366.2,105.4,410.7,1009,2368,136.2,78.1
0.057283,409.8,61.1,1019.6,244.7,2370.2,103.0,411.4,1008.7,2374.9,136,78.2
0.059283,409.2,62.7,1014.2,239.2,2373.6,90.6,411.2,1007,2380.8,135.7,78.2
0.061283,408.5,64.9,1007.1,228.9,2376.4,74.3,410.3,1003.9,2385.7,135.4,78.2
0.063283,406.5,67.5,997.6,212.9,2380.8,63.4,408.7,999.6,2389.6,135.1,78.2
0.065283,404.2,71.0,988.4,195.9,2387.8,59.7,406.7,994.3,2392.5,134.7,78.2
0.067283,403.0,75.2,979.9,178.8,2397.5,55.6,404.5,988.2,2394.6,134.3,78.1
0.069283,401.8,80.3,972.2,163.2,2407.2,46.8,402.2,981.4,2396.1,133.9,78.1
0.071283,398.9,86.7,964.5,151.3,2413.3,38.2,400,974.3,2396.9,133.5,78
0.073283,396.0,91.8,956.2,142.7,2414.5,34.3,398,966.9,2397.3,133,78
0.075283,394.9,95.2,948.7,134.1,2411.9,33.5,396.5,959.5,2397.3,132.5,77.9
0.077283,394.8,99.8,945.6,128.6,2405.8,34.6,395.4,952.3,2397,132,77.9
0.079283,394.5,105.8,945.4,128.7,2396.0,36.7,394.9,945.5,2396.5,131.4,77.8
0.081283,395.6,111.1,943.6,131.9,2384.4,37.1,394.9,939.1,2396,130.9,77.8
0.083283,399.4,115.4,939.9,135.1,2375.7,35.1,395.4,933.2,2395.3,130.3,77.7
0.085283,403.3,119.6,937.5,139.8,2371.0,32.5,396.4,927.9,2394.7,129.6,77.6
0.087283,404.6,120.7,936.9,149.3,2371.9,30.1,397.8,923.2,2394,129,77.5
0.089283,404.2,117.2,933.4,162.8,2379.4,27.2,399.4,919.1,2393.3,128.4,77.3
0.091283,404.5,114.6,924.2,177.6,2391.1,24.0,401.2,915.5,2392.5,127.7,77.1
0.093283,404.4,118.6,914.0,190.1,2401.0,21.5,403,912.3,2391.7,127,76.8
0.095283,402.3,125.5,905.9,200.2,2405.8,20.3,404.7,909.5,2390.7,126.3,76.5
0.097283,399.6,129.1,899.0,206.1,2405.6,19.9,406.1,907,2389.6,125.6,76.3
0.099283,399.1,133.0,892.9,212.1,2402.7,20.1,407.2,904.6,2388.3,124.9,76
0.101283,400.1,143.9,890.0,221.1,2398.3,21.3,407.8,902.2,2386.8,124.2,75.7
0.103283,400.2,155.5,891.7,222.7,2392.4,24.2,407.9,899.7,2385.1,123.4,75.4
0.105283,399.8,157.0,894.1,212.2,2385.0,26.3,407.4,897.1,2383.1,122.7,75.2
0.107283,402.3,149.2,894.8,205.0,2378.9,24.1,406.3,894.2,2380.8,122,75.1
0.109283,408.8,141.0,895.4,222.7,2374.2,20.3,404.6,891,2378.4,121.2,74.9
0.111283,414.3,136.7,896.0,263.2,2368.4,18.8,402.4,887.4,2375.7,120.5,74.9
0.113283,414.4,133.5,891.4,288.9,2361.3,19.2,399.7,883.6,2372.8,119.8,74.8
0.115283,408.3,132.1,879.2,278.7,2356.8,20.7,396.5,879.3,2369.7,119.1,74.7
0.117283,397.7,138.3,867.9,262.9,2358.1,24.6,393,874.8,2366.5,118.4,74.5
0.119283,384.8,154.9,866.9,269.0,2364.5,33.3,389.3,870,2363.3,117.7,74.3
0.121283,375.3,164.3,870.9,280.2,2369.2,44.3,385.4,865,2360.1,117,74.1
0.123283,371.7,161.6,868.4,272.0,2365.4,51.0,381.4,859.9,2356.9,116.4,73.8
0.125283,372.9,158.6,857.9,247.1,2355.6,49.6,377.5,854.8,2353.8,115.7,73.5
0.127283,373.6,158.8,845.8,217.0,2348.1,46.5,373.7,849.7,2350.9,115.1,73.1
0.129283,370.1,154.1,839.4,188.2,2346.5,49.7,370.2,844.9,2348.1,114.5,72.8
0.131283,365.6,140.1,838.4,165.4,2348.8,60.1,366.9,840.3,2345.6,114,72.3
0.133283,364.6,125.2,836.6,149.8,2349.5,75.9,364,836.1,2343.4,113.4,71.8
0.135283,366.9,118.6,831.7,149.3,2343.1,100.5,361.4,832.4,2341.5,112.9,71.1
0.137283,369.1,126.3,825.8,182.1,2328.2,147.8,359.3,829.2,2339.8,112.4,70.4
0.139283,366.4,141.6,822.4,260.7,2320.5,217.3,357.6,826.7,2338.6,111.9,69.6
0.141283,360.0,149.0,823.9,366.4,2334.7,272.9,356.4,824.8,2337.6,111.5,68.8
0.143283,351.9,151.0,829.8,425.9,2347.7,281.5,355.6,823.7,2337.1,111,67.9
0.145283,339.0,163.0,825.9,388.6,2350.3,279.5,355.4,823.3,2336.9,110.7,67
