time,f1,b1,f2,b2,f3,b3,f1p,f2p,f3p,f0,intensity
0.025476,390.5,199.5,1165.9,202.5,2209.6,176.1,461.8,1138.6,2236.6,142.5,72.9
0.027476,425.2,178.2,1164.9,179.9,2224.1,118.6,462.3,1139.9,2237.1,141.7,74.2
0.029476,449.7,149.3,1160.5,162.0,2231.0,90.9,463.1,1142.1,2237.9,140.8,75.2
0.031476,465.0,126.1,1156.4,146.8,2234.2,74.5,464.2,1145,2239,139.9,75.9
0.033476,472.8,113.2,1154.1,139.3,2237.6,67.2,465.7,1148.7,2240.4,139,76.5
0.035476,476.6,110.4,1154.6,142.7,2239.2,7395.7,467.4,1153,2242,138,76.9
0.037476,479.2,116.9,1158.9,154.7,2247.7,75.6,469.5,1157.9,2243.9,137.1,77.1
0.039476,482.5,125.9,1164.8,163.5,2253.3,79.9,471.9,1163.2,2245.8,136.1,77.4
0.041476,488.8,129.4,1170.3,163.5,2260.4,80.2,474.6,1168.9,2247.8,135.2,77.6
0.043476,497.2,125.8,1174.6,156.3,2266.9,79.2,477.6,1174.8,2249.9,134.2,77.9
0.045476,505.9,118.4,1177.1,143.0,2269.5,74.3,480.8,1180.8,2251.9,133.2,78.2
0.047476,511.9,110.9,1177.2,128.2,2267.8,64.2,484.4,1186.8,2253.8,132.3,78.4
0.049476,514.5,106.7,1177.0,117.3,2263.7,52.2,488.1,1192.6,2255.5,131.3,78.5
0.051476,512.4,111.5,1178.6,118.6,2259.2,44.6,492.2,1198.2,2257.1,130.4,78.5
0.053476,505.9,126.6,1182.9,135.8,2255.3,41.7,496.4,1203.6,2258.3,129.4,78.5
0.055476,500.2,142.4,1187.9,160.4,2254.0,40.4,500.8,1208.5,2259.3,128.5,78.3
0.057476,499.2,152.4,1192.7,180.4,2255.1,37.8,505.4,1212.9,2259.9,127.6,78.2
0.059476,502.6,158.2,1198.4,188.3,2257.2,35.9,510.1,1216.8,2260.2,126.7,78.1
0.061476,508.8,162.0,1205.5,186.4,2258.7,37.0,514.9,1220.1,2260,125.9,78.1
0.063476,515.6,158.7,1209.4,176.7,2258.9,40.5,519.8,1222.8,2259.5,125,78.1
0.065476,522.6,151.0,1210.7,163.5,2259.4,43.0,524.7,1225,2258.5,124.2,78.2
0.067476,527.2,146.8,1211.9,154.2,2260.6,44.8,529.6,1226.6,2257.1,123.4,78.2
0.069476,528.6,146.3,1213.4,148.3,2260.8,46.7,534.4,1227.7,2255.3,122.6,78.3
0.071476,530.5,143.2,1215.4,139.7,2258.7,45.8,539.2,1228.3,2253.1,121.9,78.4
0.073476,534.9,138.3,1218.5,132.5,2255.3,41.9,543.9,1228.6,2250.6,121.1,78.4
0.075476,542.4,138.2,1225.2,135.8,2250.5,38.6,548.4,1228.4,2247.7,120.4,78.5
0.077476,552.5,143.3,1236.8,155.1,2243.9,40.1,552.6,1228.1,2244.7,119.8,78.5
0.079476,564.6,142.0,1251.5,181.8,2235.7,45.1,556.7,1227.6,2241.3,119.1,78.5
0.081476,573.6,129.7,1260.6,194.0,2229.5,48.9,560.5,1227,2237.9,118.4,78.5
0.083476,577.3,116.2,1262.3,192.6,2225.3,53.0,564,1226.5,2234.4,117.8,78.5
0.085476,574.2,111.3,1257.7,189.1,2221.1,62.4,567.2,1226.1,2230.8,117.2,78.4
0.087476,566.5,111.8,1248.1,180.9,2216.1,73.7,570.1,1225.9,2227.2,116.6,78.3
0.089476,562.5,110.4,1241.0,164.3,2214.1,74.2,572.6,1226.1,2223.8,116.1,78.2
0.091476,564.8,106.9,1239.1,146.8,2214.9,67.2,574.8,1226.6,2220.5,115.5,78.1
0.093476,568.3,107.8,1240.6,137.4,2216.1,65.5,576.7,1227.5,2217.4,115,78
0.095476,567.6,115.9,1241.3,134.8,2215.8,73.7,578.2,1228.8,2214.5,114.5,77.8
0.097476,565.3,122.7,1239.9,130.8,2214.3,81.4,579.3,1230.7,2212,114,77.7
0.099476,566.7,123.5,1239.2,123.9,2213.5,80.0,580.2,1233,2209.8,113.5,77.7
0.101476,571.4,127.8,1240.8,121.2,2213.1,75.2,580.7,1235.7,2207.9,113,77.6
0.103476,575.3,149.5,1244.6,126.2,2210.4,75.9,581,1238.9,2206.5,112.5,77.5
0.105476,575.5,184.3,1246.7,132.2,2206.0,78.3,581.1,1242.5,2205.5,112.1,77.4
0.107476,573.8,204.8,1245.4,130.2,2205.0,73.2,581,1246.4,2204.9,111.6,77.4
0.109476,573.8,201.5,1242.5,124.6,2207.5,64.9,580.7,1250.6,2204.7,111.2,77.3
0.111476,577.1,193.0,1240.7,124.7,2209.3,62.4,580.3,1254.9,2204.9,110.8,77.2
0.113476,581.4,194.4,1240.7,133.3,2207.8,70.1,579.8,1259.3,2205.5,110.3,77.1
0.115476,584.5,197.2,1242.6,138.3,2205.2,78.7,579.2,1263.6,2206.5,109.9,77
0.117476,587.5,191.0,1246.5,133.2,2206.6,79.0,578.7,1267.8,2207.8,109.5,76.9
0.119476,589.3,181.2,1252.3,128.5,2211.9,78.8,578.3,1271.8,2209.3,109.1,76.7
0.121476,588.1,178.1,1260.5,135.4,2217.6,87.5,577.9,1275.3,2211.2,108.6,76.6
0.123476,584.4,179.6,1265.7,147.8,2220.8,97.9,577.6,1278.5,2213.3,108.2,76.4
0.125476,582.5,175.1,1266.0,148.4,2222.7,96.7,577.5,1281.2,2215.5,107.8,76.3
0.127476,585.2,167.1,1266.1,136.5,2224.3,84.4,577.6,1283.2,2217.8,107.4,76.2
0.129476,591.2,165.8,1270.2,123.0,2226.6,71.1,577.8,1284.7,2220.3,106.9,76
0.131476,598.0,175.6,1277.5,117.4,2228.2,65.8,578.3,1285.5,2222.7,106.5,75.9
0.133476,604.2,184.5,1283.4,117.4,2228.1,65.3,579,1285.6,2225.2,106,75.8
0.135476,608.9,181.2,1284.2,114.3,2227.2,61.4,579.9,1285.1,2227.5,105.6,75.6
0.137476,612.2,172.8,1281.4,108.8,2226.6,55.6,581,1283.9,2229.8,105.1,75.4
0.139476,608.8,175.8,1277.3,112.8,2226.2,57.3,582.3,1282.3,2232,104.7,75
0.141476,593.4,199.5,1272.5,134.5,2224.6,74.2,583.8,1280.1,2234.1,104.2,74.6
0.143476,571.0,229.8,1266.7,161.4,2221.9,99.7,585.4,1277.6,2236,103.7,74.1
0.145476,560.6,245.9,1265.3,172.4,2221.1,105.9,587.1,1274.9,2237.7,103.2,73.6
0.147476,565.9,256.9,1271.7,173.2,2224.1,92.1,588.8,1272,2239.2,102.7,73.2
0.149476,578.7,276.2,1284.1,174.4,2231.0,77.1,590.7,1269.2,2240.6,102.2,72.9
0.151476,582.7,304.4,1297.0,184.5,2241.5,67.6,592.5,1266.6,2241.8,101.7,72.8
0.153476,572.7,320.0,1301.3,188.5,2249.2,57.7,594.2,1264.4,2242.8,101.1,72.8
0.155476,569.8,306.9,1299.5,170.7,2252.0,46.7,595.8,1262.7,2243.6,100.6,72.9
0.157476,574.4,279.7,1297.1,148.2,2252.0,41.9,597.3,1261.8,2244.4,100,73
0.159476,570.6,253.7,1294.7,139.6,2250.5,47.1,598.5,1261.7,2245,99.5,73.3
0.161476,565.1,230.7,1290.9,137.3,2248.2,54.9,599.6,1262.6,2245.5,98.9,73.5
0.163476,568.2,205.2,1286.7,127.0,2246.9,54.2,600.3,1264.7,2246,98.4,73.6
0.165476,578.2,180.6,1284.0,111.3,2246.9,47.0,600.7,1268.1,2246.4,97.8,73.7
0.167476,590.8,161.5,1283.3,96.2,2247.6,39.5,600.8,1272.8,2246.9,97.3,73.6
0.169476,599.4,163.0,1285.7,93.3,2248.3,39.2,600.5,1279,2247.3,96.7,73.4
0.171476,601.4,193.1,1292.2,109.0,2248.0,50.7,599.8,1286.6,2247.8,96.1,73.1
0.173476,601.6,223.1,1299.0,125.8,2247.4,63.5,598.8,1295.7,2248.3,95.6,72.8
0.175476,605.8,223.8,1303.9,125.2,2248.0,63.2,597.3,1306.2,2249,95,72.4
0.177476,613.6,201.4,1307.0,111.1,2249.6,54.4,595.5,1318.1,2249.7,94.5,72
0.179476,619.9,182.9,1310.8,102.1,2251.0,50.2,593.4,1331.2,2250.4,94,71.5
0.181476,620.3,185.6,1319.5,113.5,2251.6,58.0,590.9,1345.6,2251.3,93.5,71.1
0.183476,617.9,198.6,1331.1,130.4,2252.3,65.0,588.1,1360.9,2252.3,93,70.7
0.185476,617.0,194.3,1341.0,129.8,2253.6,58.2,585.1,1377,2253.4,92.5,70.4
0.187476,617.6,176.1,1347.9,116.6,2255.1,45.6,581.9,1393.8,2254.5,92,70.2
0.189476,618.3,161.7,1357.5,104.6,2257.1,34.6,578.5,1411,2255.8,91.6,70
0.191476,613.4,174.0,1377.9,110.7,2259.7,32.0,575,1428.3,2257,91.1,69.8
0.193476,595.8,221.0,1417.1,137.2,2263.4,39.1,571.5,1445.5,2258.3,90.7,69.7
0.195476,571.6,255.0,1448.3,146.8,2266.0,44.5,568.1,1462.3,2259.6,90.3,69.5
0.197476,554.2,249.8,1459.2,133.7,2266.0,41.7,564.7,1478.5,2260.9,90,69.4
0.199476,550.4,227.4,1461.9,114.4,2264.8,35.4,561.5,1493.8,2262.1,89.6,69.2
0.201476,551.1,207.6,1470.9,102.2,2263.9,31.4,558.5,1508,2263.3,89.3,68.9
0.203476,545.6,206.7,1499.5,111.2,2264.4,37.4,555.8,1520.8,2264.4,89,68.6
0.205476,537.1,218.4,1548.4,120.3,2267.5,53.4,553.4,1532,2265.3,88.7,68.3
0.207476,535.8,214.9,1578.3,106.0,2268.7,60.3,551.4,1541.4,2266.1,88.5,68.2
0.209476,538.8,195.7,1589.4,86.7,2266.2,54.4,549.7,1549,2266.8,88.2,68
0.211476,541.5,176.4,1595.2,72.2,2262.5,45.1,548.6,1554.4,2267.2,88,67.9
0.213476,534.9,174.9,1607.3,70.8,2258.7,42.1,547.8,1557.8,2267.5,87.8,67.8
0.215476,499.5,207.2,1641.8,95.0,2255.6,53.4,547.6,1558.9,2267.6,87.6,67.8
