time,f1,b1,f2,b2,f3,b3,f1p,f2p,f3p,f0,intensity
0.025277,311.8,29.0,1913.8,104.0,2253.3,82.6,314.4,1883.3,2239.5,100.5,73.2
0.027277,311.1,27.6,1896.6,107.2,2246.7,73.4,314.8,1873.5,2239.8,100.1,73
0.029277,311.0,27.7,1878.4,114.7,2242.9,66.7,315.6,1857.4,2240.3,99.7,72.8
0.031277,312.7,31.0,1845.0,148.3,2240.1,72.9,316.6,1835.4,2240.9,99.3,72.6
0.033277,316.2,33.9,1801.0,195.1,2238.2,84.2,318,1808,2241.6,98.8,72.4
0.035277,319.6,34.1,1774.9,222.4,2239.0,82.3,319.6,1775.6,2242.3,98.4,72.1
0.037277,322.6,34.4,1761.1,240.7,2240.7,69.5,321.6,1739.1,2242.9,97.9,71.9
0.039277,325.1,38.5,1724.1,265.8,2238.6,57.5,324,1699.1,2243.4,97.5,71.5
0.041277,327.7,47.2,1622.5,266.1,2232.1,51.4,326.7,1656.4,2243.7,97,71.1
0.043277,331.2,49.8,1536.1,214.0,2227.1,58.0,329.7,1611.9,2243.7,96.5,70.7
0.045277,336.2,44.7,1501.8,180.3,2226.8,76.3,333.1,1566.2,2243.4,96.1,70.3
0.047277,342.2,38.9,1486.5,163.9,2232.9,93.4,336.7,1520.3,2242.7,95.7,69.8
0.049277,348.8,36.9,1473.7,160.8,2244.5,99.8,340.7,1474.7,2241.7,95.3,69.2
0.051277,356.7,43.3,1442.0,173.6,2259.5,95.4,344.9,1430.2,2240.3,95,68.6
0.053277,362.5,63.6,1382.7,186.4,2265.4,78.1,349.2,1387.3,2238.6,94.7,68
0.055277,360.9,84.5,1328.5,169.4,2255.1,54.3,353.7,1346.5,2236.5,94.5,67.5
0.057277,356.2,91.2,1302.4,150.1,2242.6,36.8,358.3,1308.1,2234.3,94.3,67.2
0.059277,353.3,91.2,1287.0,141.6,2234.7,27.4,362.9,1272.4,2232,94.2,67.1
0.061277,353.6,89.2,1269.5,144.1,2227.5,22.4,367.3,1239.5,2229.7,94.1,67.1
0.063277,359.8,89.3,1246.2,168.2,2220.6,23.0,371.6,1209.4,2227.6,94.1,67.1
0.065277,370.5,94.1,1211.9,218.0,2214.5,31.3,375.7,1182.2,2225.8,94.2,67.2
0.067277,376.9,95.9,1176.7,244.8,2212.2,42.7,379.5,1157.6,2224.4,94.3,67.4
0.069277,379.7,95.3,1154.3,245.2,2214.4,44.8,382.9,1135.4,2223.6,94.5,67.6
0.071277,382.7,95.9,1137.8,243.3,2218.5,36.9,385.8,1115.4,2223.5,94.8,67.8
0.073277,386.2,97.4,1118.2,245.0,2222.0,27.8,388.4,1097.4,2224.3,95.1,68
0.075277,389.1,101.8,1087.2,256.9,2225.9,22.5,390.4,1080.9,2226.1,95.5,68.2
0.077277,390.7,106.5,1056.7,272.2,2232.2,22.6,392,1065.7,2228.9,96,68.5
0.079277,392.9,103.5,1035.1,272.9,2240.6,24.7,393.2,1051.4,2232.8,96.5,68.9
0.081277,396.9,94.0,1018.6,258.3,2246.3,24.6,393.9,1038,2237.9,97,69.2
0.083277,401.5,85.5,1002.4,237.9,2248.6,23.0,394.3,1025,2244.1,97.6,69.5
0.085277,404.1,83.3,984.7,209.6,2250.8,22.3,394.3,1012.4,2251.4,98.2,69.7
0.087277,400.9,90.8,973.9,180.2,2255.8,25.7,394.2,1000.1,2259.7,98.8,69.8
0.089277,395.5,102.7,971.0,157.0,2266.7,35.5,393.9,988,2268.9,99.4,70
0.091277,393.5,110.0,969.9,143.2,2279.8,46.5,393.6,976.2,2278.9,100.1,70.1
0.093277,394.6,113.5,965.4,135.8,2289.1,54.8,393.3,964.6,2289.5,100.7,70.3
0.095277,395.1,119.3,954.7,137.5,2294.7,67.7,393.3,953.4,2300.6,101.4,70.4
0.097277,393.3,129.8,941.5,143.7,2304.6,94.2,393.5,942.8,2311.8,102,70.6
0.099277,392.1,138.6,931.8,143.5,2324.6,128.0,394,932.8,2323.1,102.6,70.8
0.101277,393.2,140.4,926.7,135.9,2343.7,138.1,394.9,923.8,2334.3,103.2,71
0.103277,395.7,138.6,923.0,128.9,2355.9,116.9,396.3,915.7,2345.1,103.7,71.2
0.105277,397.9,138.6,920.5,134.2,2363.1,81.9,398.2,908.9,2355.3,104.3,71.4
0.107277,398.8,140.3,918.3,152.6,2366.5,57.1,400.6,903.3,2364.9,104.7,71.6
0.109277,399.2,140.2,913.6,170.5,2367.8,43.7,403.4,899.1,2373.6,105.2,71.7
0.111277,400.2,139.2,906.9,174.8,2369.8,40.6,406.6,896.2,2381.3,105.6,71.9
0.113277,404.4,145.8,902.0,175.8,2376.8,48.1,410.2,894.7,2388,106,72
0.115277,412.4,164.2,901.1,186.4,2390.5,62.5,413.9,894.4,2393.7,106.3,72.1
0.117277,421.1,182.0,901.4,199.0,2405.8,70.7,417.8,895.2,2398.2,106.6,72.2
0.119277,426.1,184.7,901.6,198.4,2411.0,66.2,421.7,896.8,2401.6,106.8,72.4
0.121277,427.7,177.2,902.0,188.1,2407.3,58.6,425.4,899,2404,107,72.5
0.123277,428.7,171.1,902.5,180.2,2401.1,54.6,428.8,901.5,2405.5,107.1,72.6
0.125277,430.8,172.9,901.5,180.4,2398.5,55.6,431.7,903.9,2406.1,107.2,72.7
0.127277,433.8,176.5,898.1,178.5,2400.2,54.1,434,906,2406,107.3,72.7
0.129277,435.9,177.3,895.2,169.2,2402.3,46.8,435.5,907.3,2405.2,107.3,72.8
0.131277,436.8,183.5,894.8,159.3,2403.8,38.7,436.2,907.6,2404,107.3,72.8
0.133277,437.3,206.8,895.9,159.5,2406.0,35.4,435.9,906.5,2402.5,107.2,72.7
0.135277,437.5,233.9,893.6,162.0,2408.2,35.7,434.6,903.9,2400.8,107.1,72.7
0.137277,436.3,243.1,887.7,152.9,2407.8,35.0,432.2,899.4,2399.1,107,72.6
0.139277,433.1,233.0,881.7,134.8,2404.3,33.2,428.7,893.2,2397.4,106.9,72.4
0.141277,425.9,218.1,876.0,117.3,2398.5,33.7,424.2,885,2395.9,106.7,72.3
0.143277,415.2,211.5,870.0,111.3,2392.6,38.7,418.8,874.9,2394.6,106.5,72.1
0.145277,406.9,210.6,862.9,114.0,2389.3,44.2,412.5,863.2,2393.7,106.2,71.8
0.147277,402.0,206.1,853.7,116.3,2388.6,46.4,405.5,849.9,2393,106,71.6
0.149277,397.5,195.7,844.7,116.1,2389.1,47.1,397.9,835.4,2392.7,105.7,71.3
0.151277,388.3,181.4,835.1,122.4,2389.3,52.5,390,820,2392.7,105.4,71
0.153277,377.0,172.5,824.2,148.2,2389.1,67.0,381.9,804.2,2393,105.2,70.6
0.155277,369.9,176.5,807.8,196.6,2390.1,81.4,373.9,788.3,2393.5,104.9,70.2
0.157277,368.4,195.7,788.2,239.1,2393.6,73.5,366.2,772.9,2394.2,104.6,69.8
0.159277,368.6,230.0,771.8,260.7,2397.3,52.7,358.9,758.3,2395,104.3,69.1
0.161277,365.5,291.2,757.9,277.5,2400.2,34.1,352.4,745.2,2395.9,104,68.4
0.163277,351.8,360.6,747.9,303.1,2401.4,26.7,346.8,733.7,2396.7,103.7,67.5
0.165277,331.4,389.5,741.9,362.1,2400.3,30.6,342.3,724.5,2397.4,103.4,66.6
0.167277,323.1,384.4,732.1,486.5,2397.8,44.8,338.9,717.6,2397.9,103.1,65.6
0.169277,331.4,400.1,705.5,729.2,2396.2,62.5,336.9,713.4,2398.2,102.8,64.6
0.171277,350.5,426.7,615.2,1378.2,2396.4,87.3,336.2,712,2398.4,102.6,63.5
