time,f1,b1,f2,b2,f3,b3,f1p,f2p,f3p,f0,intensity
0.025934,270.0,55.5,1692.7,230.7,2238.0,49.7,273.1,1759.9,2238.6,128.2,77.9
0.027934,271.8,55.9,1746.4,205.6,2242.6,44.5,273.5,1769.9,2241.2,128.2,78.3
0.029934,273.9,56.8,1778.4,181.0,2245.0,38.9,274.2,1786,2245.5,128.1,78.6
0.031934,275.8,60.3,1814.3,160.1,2248.7,35.4,275.2,1807.5,2251.4,128.1,78.9
0.033934,276.9,65.2,1859.3,137.4,2256.3,37.3,276.3,1833.3,2258.8,128.1,79.2
0.035934,277.5,70.3,1899.7,110.2,2268.7,43.1,277.8,1862.3,2267.4,128,79.5
0.037934,278.7,73.5,1924.9,91.7,2281.9,48.4,279.4,1893.2,2277.1,128,79.7
0.039934,281.0,74.5,1945.6,87.2,2292.8,53.7,281.2,1924.8,2287.7,128,80
0.041934,284.1,76.4,1970.7,92.3,2301.2,60.7,283.2,1955.6,2298.9,127.9,80.3
0.043934,288.1,80.6,1997.5,93.6,2310.0,66.5,285.4,1984.6,2310.5,127.8,80.5
0.045934,291.8,83.3,2016.3,86.0,2319.3,66.1,287.6,2010.7,2322.2,127.7,80.8
0.047934,294.4,83.6,2028.7,75.1,2329.5,61.7,289.9,2033.2,2333.9,127.6,80.9
0.049934,295.1,85.1,2039.7,66.6,2341.5,59.9,292.2,2051.6,2345.2,127.5,81
0.051934,295.2,90.6,2052.8,60.5,2355.4,62.1,294.6,2065.7,2355.9,127.4,81
0.053934,296.1,95.5,2064.8,55.4,2366.7,63.1,296.8,2075.3,2365.9,127.3,80.9
0.055934,297.4,97.0,2073.1,51.2,2374.4,60.4,299,2081,2375,127.1,80.9
0.057934,298.1,98.1,2075.5,49.3,2379.7,58.0,301.1,2083,2383.1,126.9,80.8
0.059934,298.5,99.6,2070.6,49.6,2384.3,59.5,303.1,2082.1,2390.1,126.7,80.7
0.061934,299.9,98.6,2062.3,49.6,2390.9,64.9,304.8,2079.1,2395.9,126.5,80.7
0.063934,302.3,97.6,2057.3,49.3,2403.4,73.9,306.4,2074.7,2400.6,126.3,80.7
0.065934,305.1,100.9,2059.6,50.9,2415.9,82.5,307.8,2069.7,2404.2,126,80.8
0.067934,308.5,106.2,2065.5,51.9,2420.3,84.6,308.9,2065,2406.7,125.7,80.9
0.069934,311.8,108.6,2069.7,49.8,2418.5,80.8,309.9,2061.1,2408.2,125.4,81.1
0.071934,313.7,110.4,2071.2,47.5,2413.5,75.6,310.7,2058.5,2409,125.1,81.2
0.073934,314.0,118.7,2072.7,49.2,2406.9,72.1,311.3,2057.5,2409,124.8,81.2
0.075934,314.1,130.0,2075.4,54.2,2400.8,68.9,311.8,2058.2,2408.4,124.4,81.2
0.077934,315.0,132.0,2077.8,57.9,2396.6,63.4,312.2,2060.6,2407.3,124.1,81.1
0.079934,315.7,124.2,2078.0,57.7,2394.6,57.7,312.5,2064.3,2405.9,123.7,81
0.081934,314.9,117.5,2077.0,56.5,2394.5,55.9,312.7,2069,2404.1,123.3,80.9
0.083934,313.4,114.9,2077.0,55.7,2396.5,59.4,312.9,2074.1,2402.1,122.9,80.7
0.085934,312.9,110.2,2077.4,53.0,2399.6,63.7,313.2,2079.1,2400,122.5,80.6
0.087934,313.0,105.5,2076.8,49.1,2402.2,64.8,313.5,2083.4,2397.6,122,80.6
0.089934,313.1,111.0,2076.3,46.9,2402.4,64.5,313.8,2086.4,2394.9,121.6,80.7
0.091934,313.2,125.4,2076.9,46.4,2399.4,63.2,314.2,2087.6,2392,121.1,80.8
0.093934,313.8,134.5,2076.8,45.4,2394.3,59.7,314.8,2086.5,2388.6,120.7,80.9
0.095934,314.3,136.6,2073.8,44.6,2388.9,55.8,315.4,2082.9,2384.8,120.2,81
0.097934,314.0,146.6,2067.3,47.6,2383.4,55.0,316.2,2076.6,2380.5,119.7,81
0.099934,313.7,169.3,2057.8,55.6,2376.8,56.5,317,2067.4,2375.6,119.2,81.1
0.101934,315.0,185.9,2048.2,63.1,2369.5,55.3,317.9,2055.6,2370,118.7,81.1
0.103934,317.5,190.1,2037.8,65.7,2361.6,50.9,318.9,2041.4,2363.6,118.3,81
0.105934,319.0,200.0,2023.2,67.2,2352.8,47.1,319.9,2025.1,2356.7,117.8,81
0.107934,318.9,225.3,2003.4,69.8,2343.0,45.1,321,2007.1,2349,117.3,80.9
0.109934,319.7,243.6,1986.9,69.9,2335.7,43.2,322,1988,2340.9,116.8,80.7
0.111934,324.0,237.2,1976.6,65.9,2331.8,40.4,323.1,1968.2,2332.3,116.4,80.6
0.113934,329.0,222.7,1966.7,61.5,2328.6,38.5,324.1,1948.4,2323.5,115.9,80.4
0.115934,331.5,217.8,1950.4,60.0,2321.8,40.0,325,1929.1,2314.7,115.4,80.1
0.117934,330.6,217.5,1929.8,60.9,2308.5,45.2,325.9,1910.8,2306.1,115,79.9
0.119934,330.2,202.4,1911.5,60.5,2292.4,48.8,326.7,1894,2298,114.6,79.6
0.121934,332.0,183.8,1897.6,60.2,2281.8,50.6,327.4,1879,2290.6,114.2,79.3
0.123934,334.9,183.2,1883.1,67.9,2277.0,60.1,327.9,1866.3,2284.2,113.8,79
0.125934,334.4,203.7,1862.0,90.5,2273.9,90.6,328.4,1856.1,2278.9,113.4,78.7
0.127934,328.5,216.7,1834.4,117.3,2267.6,145.4,328.7,1848.7,2275,113,78.4
0.129934,320.9,219.6,1813.0,131.8,2268.4,201.9,328.9,1844.1,2272.6,112.7,78.2
0.131934,311.5,230.4,1803.8,138.6,2301.9,251.2,329,1842.6,2271.8,112.4,78.1
