time,f1,b1,f2,b2,f3,b3,f1p,f2p,f3p,f0,intensity
0.025510,402.7,127.7,898.5,413.5,2345.5,65.8,415.2,898.7,2370.2,119.5,68.3
0.027510,408.2,119.9,906.6,368.1,2351.7,70.1,416,900.1,2370,119.5,68.4
0.029510,413.5,107.8,910.0,301.5,2364.0,70.5,417.5,902.3,2369.7,119.5,68.5
0.031510,419.0,95.7,909.6,242.8,2377.8,66.2,419.4,905.2,2369.3,119.5,68.7
0.033510,424.5,84.7,908.6,199.2,2386.3,59.9,421.9,908.5,2369,119.5,68.8
0.035510,430.0,75.9,911.6,168.7,2387.9,55.8,424.8,912.3,2368.8,119.4,68.9
0.037510,435.1,70.1,917.5,148.3,2385.2,55.0,428,916.2,2368.6,119.4,69
0.039510,439.1,66.5,922.0,134.3,2379.9,55.0,431.6,920,2368.7,119.4,69.1
0.041510,441.9,64.4,922.5,128.1,2373.0,51.2,435.4,923.7,2369.1,119.3,69.1
0.043510,445.3,63.5,921.2,129.0,2368.0,44.0,439.5,927.3,2369.7,119.3,69.1
0.045510,449.7,64.1,921.5,134.6,2365.6,38.1,443.9,930.6,2370.7,119.2,68.9
0.047510,452.9,70.2,923.6,149.8,2365.6,37.2,448.4,933.8,2372,119.1,68.7
0.049510,453.8,86.9,925.3,184.4,2367.6,41.7,453.1,936.9,2373.6,119,68.4
0.051510,455.6,112.1,925.7,235.8,2369.8,48.9,458.1,940.2,2375.4,118.9,68.1
0.053510,460.9,132.5,928.2,273.7,2370.8,53.2,463.4,944,2377.4,118.8,67.8
0.055510,466.7,145.0,939.4,274.6,2372.3,53.4,468.9,948.5,2379.5,118.7,67.5
0.057510,469.6,153.6,958.7,238.6,2376.2,49.7,474.8,953.8,2381.7,118.6,67.3
0.059510,471.9,158.3,976.1,201.6,2381.3,43.4,481,960.4,2383.7,118.4,67.1
0.061510,477.9,157.2,990.4,179.2,2385.8,37.7,487.5,968.5,2385.6,118.3,66.9
0.063510,486.9,154.5,1001.0,170.3,2389.9,35.6,494.4,978,2387.1,118.1,66.8
0.065510,497.5,155.2,1008.8,167.7,2394.7,38.0,501.6,989.2,2388.4,117.9,66.7
0.067510,509.4,155.0,1016.2,165.6,2400.1,44.9,509.1,1002,2389.2,117.7,66.7
0.069510,520.7,149.4,1026.8,162.1,2401.6,51.0,516.9,1016.3,2389.6,117.5,66.7
0.071510,530.2,142.6,1039.5,157.9,2396.0,52.5,524.7,1031.9,2389.5,117.3,66.7
0.073510,536.9,140.0,1049.2,156.8,2385.9,50.8,532.6,1048.4,2388.9,117.1,66.7
0.075510,542.8,140.1,1053.1,163.8,2378.6,48.0,540.4,1065.6,2388,116.9,66.7
0.077510,551.5,135.8,1057.1,176.9,2376.4,44.1,547.9,1083.1,2386.6,116.7,66.7
0.079510,562.3,125.4,1070.1,185.9,2377.6,39.8,555.1,1100.4,2384.9,116.4,66.5
0.081510,570.4,116.3,1095.2,176.9,2380.1,37.9,561.7,1117.3,2382.9,116.2,66.2
0.083510,573.0,116.2,1126.1,146.4,2383.1,39.9,567.8,1133.4,2380.7,116,65.9
0.085510,570.6,123.2,1146.9,114.1,2385.2,45.0,573.2,1148.4,2378.3,115.7,65.5
0.087510,569.5,124.9,1159.7,91.2,2385.0,51.2,577.7,1162.3,2375.9,115.5,65
0.089510,574.1,121.0,1171.7,80.5,2381.8,59.4,581.4,1175,2373.4,115.2,64.5
0.091510,582.0,125.4,1186.7,84.3,2374.7,73.6,584.3,1186.6,2370.9,115,64
0.093510,588.8,140.1,1204.2,99.9,2363.3,91.9,586.4,1197.3,2368.4,114.8,63.5
0.095510,592.4,151.9,1219.4,117.0,2352.7,101.3,587.6,1207.4,2365.9,0,63
0.097510,593.5,152.0,1228.6,124.1,2350.5,98.8,588.2,1217.4,2363.3,0,62.6
0.099510,591.7,153.0,1238.4,126.0,2355.0,96.1,588.1,1227.6,2360.6,0,62.2
0.101510,583.9,166.4,1254.8,128.5,2360.3,96.4,587.6,1238.5,2357.8,0,62
0.103510,574.4,178.9,1270.8,126.3,2361.8,91.5,586.7,1250.6,2354.9,0,61.7
0.105510,570.3,174.7,1280.1,116.3,2360.2,80.3,585.6,1264.3,2351.7,0,61.4
0.107510,573.7,156.0,1282.8,104.1,2357.2,71.2,584.5,1279.8,2348.3,0,61.1
0.109510,582.6,136.8,1287.0,97.0,2351.4,68.4,583.3,1297.2,2344.7,0,60.7
0.111510,591.7,135.1,1306.3,106.4,2339.4,74.7,582.3,1316.7,2340.8,0,60.3
0.113510,588.3,148.6,1342.4,125.8,2326.0,83.1,581.4,1338.1,2336.7,0,60
0.115510,578.8,151.7,1374.2,127.6,2321.2,76.6,580.9,1361,2332.4,0,59.8
0.117510,576.3,138.3,1388.2,114.1,2323.2,61.7,580.5,1385,2328.1,0,59.6
0.119510,580.6,115.1,1389.1,99.5,2326.1,52.7,580.5,1409.5,2323.7,0,59.2
0.121510,589.7,88.0,1386.9,86.5,2327.5,51.3,580.6,1433.7,2319.4,0,58.7
0.123510,601.5,70.9,1393.0,81.7,2325.9,55.7,580.9,1456.9,2315.4,0,57.9
0.125510,612.6,73.4,1426.7,96.3,2317.4,68.2,581.4,1478.4,2311.7,0,57.1
0.127510,610.0,99.8,1497.9,110.3,2303.6,75.4,581.9,1497.2,2308.5,0,56.5
0.129510,582.4,136.1,1541.5,91.4,2299.6,62.2,582.3,1512.6,2305.9,0,56.3
0.131510,558.8,143.8,1556.8,71.5,2300.5,48.0,582.7,1524.1,2304,0,56.6
0.133510,555.5,121.1,1564.1,58.2,2302.4,37.5,582.9,1531.2,2302.8,0,56.8
0.135510,562.9,93.3,1568.9,49.4,2303.9,30.7,583,1533.7,2302.4,0,56.9
