time,f1,b1,f2,b2,f3,b3,f1p,f2p,f3p,f0,intensity
0.026000,489.6,273.4,1138.3,297.2,2312.5,279.0,536.2,1174.5,2314.2,104.1,58.7
0.028000,499.4,203.8,1140.8,212.2,2274.3,230.8,535.2,1178.3,2311.4,104,60.7
0.030000,509.9,173.7,1150.5,180.4,2256.9,194.7,533.5,1184.5,2306.9,103.8,62.3
0.032000,518.8,153.1,1163.4,159.0,2245.9,167.7,531,1193.4,2300.8,103.7,63.5
0.034000,526.6,140.9,1183.1,145.2,2239.5,157.1,527.9,1204.8,2293.3,103.5,64.3
0.036000,534.6,140.5,1218.8,140.1,2241.1,176.1,524,1218.9,2284.5,103.4,64.9
0.038000,540.0,151.5,1271.2,135.9,2262.6,240.9,519.5,1235.6,2274.8,103.2,65.3
0.040000,539.6,163.5,1317.7,120.7,2316.1,329.4,514.2,1255.1,2264.5,103,65.5
0.042000,537.6,167.2,1342.3,102.6,2369.2,368.5,508.1,1277.3,2253.9,102.9,65.7
0.044000,536.4,165.3,1351.6,92.2,2376.2,362.4,501.4,1302.2,2243.3,102.7,65.8
0.046000,532.4,167.9,1358.6,92.3,2339.5,344.8,494,1329.7,2233,102.5,65.8
0.048000,518.6,185.3,1374.6,107.4,2277.3,324.7,485.9,1359.7,2223.4,102.4,65.8
0.050000,491.3,204.1,1404.7,125.4,2223.6,300.2,477.2,1392.1,2214.8,102.2,65.7
0.052000,464.4,197.9,1432.6,122.9,2190.6,263.5,467.9,1426.7,2207.5,102.1,65.7
0.054000,448.7,183.9,1450.5,111.4,2170.9,219.9,458.2,1463.1,2201.7,101.9,65.6
0.056000,438.4,178.2,1467.0,106.9,2157.1,182.7,448.1,1501.1,2197.7,101.8,65.6
0.058000,424.9,177.7,1497.0,117.9,2146.8,155.9,437.7,1540.4,2195.6,101.6,65.7
0.060000,410.1,165.4,1551.1,144.3,2148.6,143.6,427.2,1580.4,2195.6,101.5,65.7
0.062000,400.9,139.1,1611.1,160.4,2159.0,133.3,416.6,1620.8,2197.8,101.4,65.8
0.064000,396.3,122.1,1649.7,159.9,2168.8,116.1,406,1661.1,2202.2,101.3,65.9
0.066000,391.4,119.8,1681.6,158.8,2181.8,98.3,395.7,1700.8,2208.8,101.2,66.1
0.068000,382.7,127.0,1732.0,162.2,2202.5,88.4,385.7,1739.6,2217.5,101.1,66.2
0.070000,369.5,129.4,1799.6,150.8,2227.5,83.2,376.1,1776.8,2228.2,101,66.3
0.072000,359.5,123.2,1841.7,126.0,2246.0,76.4,367.1,1812,2240.9,100.9,66.5
0.074000,354.1,119.5,1858.6,110.8,2258.0,72.5,358.8,1845,2255.2,100.8,66.6
0.076000,348.9,117.6,1869.1,107.3,2269.7,78.2,351.2,1875.3,2271,100.8,66.7
0.078000,340.8,115.3,1888.5,112.3,2288.6,102.1,344.4,1902.7,2288,100.7,66.9
0.080000,331.5,110.6,1918.3,112.7,2317.0,138.4,338.6,1927.1,2305.9,100.6,67.1
0.082000,326.2,105.5,1940.3,106.8,2341.0,161.4,333.6,1948.1,2324.6,100.5,67.4
0.084000,325.0,104.6,1956.7,103.4,2358.8,178.0,329.5,1966,2343.6,100.4,67.7
0.086000,326.8,107.9,1974.9,102.0,2375.2,198.6,326.4,1980.7,2362.8,100.3,67.9
0.088000,329.2,108.0,1997.3,95.6,2397.1,221.2,324.1,1992.3,2381.8,100.1,68.1
0.090000,329.3,96.7,2015.6,81.3,2427.4,229.8,322.5,2001.1,2400.4,100,68.2
0.092000,327.5,81.4,2022.6,67.2,2455.8,218.4,321.7,2007.4,2418.3,99.9,68.2
0.094000,327.3,71.6,2020.9,59.1,2472.9,201.3,321.5,2011.4,2435.3,99.7,68.1
0.096000,329.9,65.4,2015.2,56.3,2478.7,187.6,321.8,2013.7,2451.2,99.5,67.9
0.098000,333.9,59.4,2008.4,60.8,2471.3,188.2,322.5,2014.6,2465.8,99.3,67.7
0.100000,335.3,52.4,2003.9,74.3,2452.5,205.5,323.4,2014.6,2479.1,99.1,67.5
0.102000,333.4,47.9,2007.0,84.2,2441.9,218.1,324.4,2014,2490.7,98.9,67.3
0.104000,331.4,46.8,2015.6,78.8,2450.4,215.4,325.5,2013.4,2500.8,98.7,67.1
0.106000,330.8,48.1,2025.0,68.1,2465.3,210.8,326.4,2013.1,2509.2,98.4,66.9
0.108000,331.2,50.2,2033.6,62.6,2484.1,224.6,327,2013.5,2515.8,98.2,66.7
0.110000,330.5,51.6,2041.4,66.2,2514.7,249.8,327.4,2014.8,2520.7,97.9,66.5
0.112000,327.7,51.0,2044.6,79.3,2541.2,246.9,327.3,2017.3,2523.9,97.6,66.3
0.114000,324.6,49.6,2042.4,96.3,2550.3,225.5,326.8,2021.2,2525.4,97.3,66.1
0.116000,322.0,50.0,2036.3,111.0,2549.3,207.4,325.7,2026.4,2525.3,97,65.8
0.118000,319.6,53.7,2025.4,132.1,2542.0,207.9,324.2,2033,2523.6,96.7,65.4
0.120000,316.2,57.1,2007.6,182.1,2526.9,235.5,322.2,2040.9,2520.4,96.4,65
0.122000,311.5,54.0,1983.9,278.7,2502.9,258.8,319.6,2049.9,2515.9,96.1,64.6
0.124000,307.6,48.1,1983.1,368.8,2488.0,252.1,316.6,2059.9,2510,95.8,64.1
0.126000,304.7,44.4,2029.3,383.4,2488.2,248.9,313.3,2070.5,2502.9,95.5,63.6
0.128000,301.5,43.4,2078.8,332.4,2494.6,238.8,309.7,2081.5,2494.8,95.1,63.1
0.130000,296.5,47.3,2103.6,300.1,2492.1,215.9,305.8,2092.5,2485.7,94.8,62.5
0.132000,289.8,52.7,2123.4,295.6,2485.3,199.4,301.8,2103.2,2475.7,94.5,62
0.134000,285.2,51.8,2148.7,294.7,2481.9,198.1,297.8,2113.2,2465,94.3,61.5
0.136000,283.5,49.9,2172.9,264.2,2480.7,206.8,293.8,2122.3,2453.8,94,61.2
0.138000,284.1,52.0,2175.3,187.9,2472.2,209.1,289.9,2130.1,2442,93.7,60.9
0.140000,287.5,55.1,2161.4,121.3,2434.1,185.3,286.3,2136.5,2429.9,93.5,60.7
0.142000,291.9,51.8,2147.2,83.6,2393.7,133.0,283,2141.2,2417.6,93.2,60.6
0.144000,291.8,44.3,2139.7,61.3,2379.2,97.9,280,2144.2,2405.2,93,60.6
0.146000,288.0,39.7,2135.2,51.4,2376.7,85.3,277.3,2145.5,2392.8,92.8,60.4
0.148000,283.4,37.9,2129.7,48.1,2377.4,84.9,275.1,2145,2380.5,92.6,60.1
0.150000,280.2,39.2,2122.1,50.5,2379.5,96.8,273.2,2142.9,2368.6,92.5,59.5
0.152000,280.5,46.8,2112.2,61.9,2380.5,129.9,271.8,2139.3,2357,0,58.6
0.154000,285.4,65.4,2101.5,87.6,2368.9,189.8,270.7,2134.5,2346,0,57.4
0.156000,292.3,98.5,2097.1,118.5,2334.5,229.3,269.9,2128.7,2335.6,0,55.8
0.158000,295.5,147.1,2104.0,132.9,2309.4,236.8,269.5,2122.3,2326,0,54.2
0.160000,290.7,218.3,2122.5,139.6,2294.3,274.5,269.2,2115.6,2317.2,0,52.6
0.162000,280.4,307.6,2152.1,137.7,2277.0,400.1,269.2,2109,2309.4,0,51.2
0.164000,269.9,409.3,2173.2,120.1,2274.0,662.9,269.3,2102.6,2302.7,0,50.1
0.166000,261.2,499.9,2182.9,129.3,2278.8,1022.8,269.4,2097,2297,0,49.3
0.168000,256.6,551.9,2190.8,181.3,2255.1,1344.0,269.6,2092.3,2292.6,0,48.7
0.170000,255.2,564.0,2205.5,315.3,2216.6,1273.6,269.7,2088.8,2289.3,0,48.4
0.172000,251.6,550.1,2014.5,810.2,2340.3,509.9,269.8,2086.6,2287.4,0,48.1
0.174000,231.1,564.0,1828.2,644.6,2417.9,370.0,269.9,2085.8,2286.7,0,47.8
