time,f1,b1,f2,b2,f3,b3,f1p,f2p,f3p,f0,intensity
0.025401,462.5,30.5,1878.4,157.6,2464.7,148.2,478.4,1811.5,2424.5,111.1,72.5
0.027401,468.5,31.2,1855.2,151.7,2451.0,133.9,480.3,1807.8,2423.8,110.9,72.3
0.029401,474.8,34.7,1829.5,148.0,2433.2,116.0,483.4,1801.6,2422.7,110.6,71.9
0.031401,481.0,45.3,1794.8,150.2,2413.8,94.7,487.7,1793.1,2421.1,110.3,71.5
0.033401,486.7,60.5,1763.5,144.7,2403.2,75.8,493,1782.5,2419,109.9,71
0.035401,493.8,72.9,1740.7,129.8,2399.1,61.3,499.4,1769.7,2416.6,109.6,70.6
0.037401,503.8,79.9,1725.4,114.6,2398.0,51.8,506.6,1755.1,2413.8,109.2,70.4
0.039401,519.1,86.4,1712.0,106.3,2398.5,47.6,514.5,1738.9,2410.7,108.9,70.4
0.041401,535.1,86.4,1699.8,108.3,2400.2,48.7,523,1721.2,2407.3,108.5,70.6
0.043401,547.7,78.0,1687.7,113.2,2401.0,48.5,532,1702.4,2403.7,108.1,70.8
0.045401,558.7,67.4,1673.6,116.0,2399.9,44.8,541.3,1682.6,2399.9,107.7,71
0.047401,567.8,62.0,1655.3,122.7,2397.4,43.8,550.7,1662.1,2395.9,107.3,71.2
0.049401,574.7,64.3,1628.4,140.3,2392.3,51.7,560.1,1641.2,2391.9,106.9,71.3
0.051401,578.5,69.2,1601.2,152.8,2384.7,65.7,569.3,1620.1,2387.8,106.4,71.3
0.053401,582.4,67.8,1581.2,149.1,2377.6,76.4,578.3,1599.1,2383.7,106,71.4
0.055401,589.0,60.5,1567.2,135.5,2373.5,78.9,586.9,1578.4,2379.7,105.6,71.4
0.057401,596.9,54.6,1555.4,125.6,2372.1,78.1,595.1,1558.1,2375.8,105.2,71.4
0.059401,603.7,53.9,1540.5,127.4,2370.8,79.9,602.6,1538.6,2372.1,104.7,71.4
0.061401,608.0,54.1,1525.2,133.4,2368.5,79.4,609.6,1519.9,2368.5,104.3,71.5
0.063401,611.9,49.7,1511.0,134.4,2366.0,74.9,615.8,1502.1,2365.2,103.9,71.5
0.065401,615.8,44.6,1499.4,134.2,2363.9,71.1,621.4,1485.4,2362.1,103.5,71.5
0.067401,618.7,45.3,1488.2,143.2,2361.2,74.7,626.2,1469.9,2359.3,103.1,71.3
0.069401,619.2,58.7,1474.2,167.4,2355.0,95.7,630.4,1455.5,2356.8,102.7,71.1
0.071401,618.9,78.9,1458.2,183.6,2345.2,126.8,633.9,1442.4,2354.5,102.3,70.9
0.073401,623.0,88.0,1442.2,179.0,2338.6,144.2,636.8,1430.5,2352.6,101.9,70.7
0.075401,631.8,83.0,1430.0,166.9,2341.8,140.1,639.1,1419.8,2351,101.5,70.5
0.077401,640.3,79.5,1420.1,164.3,2353.7,127.5,641,1410.3,2349.7,101.1,70.5
0.079401,644.2,86.9,1411.2,179.8,2366.3,114.6,642.4,1401.8,2348.7,100.7,70.5
0.081401,643.7,94.7,1401.7,194.0,2369.3,104.0,643.5,1394.4,2347.9,100.4,70.6
0.083401,643.7,91.3,1390.5,189.4,2366.2,91.3,644.3,1387.9,2347.3,100,70.6
0.085401,646.2,81.2,1380.2,173.2,2362.7,77.3,644.9,1382.1,2347,99.7,70.6
0.087401,649.0,73.8,1370.5,159.8,2360.1,64.1,645.4,1377.2,2346.8,99.4,70.6
0.089401,648.4,76.3,1363.4,160.9,2357.4,56.6,645.9,1372.8,2346.8,99,70.6
0.091401,646.2,80.8,1358.7,165.5,2353.6,52.6,646.5,1368.9,2346.9,98.7,70.6
0.093401,647.1,77.1,1354.1,160.3,2350.0,47.4,647.1,1365.5,2347.1,98.4,70.7
0.095401,651.2,69.6,1349.6,149.7,2347.1,41.2,647.8,1362.4,2347.2,98.2,70.7
0.097401,656.0,66.5,1346.4,144.7,2342.4,36.6,648.6,1359.6,2347.4,97.9,70.7
0.099401,657.1,74.5,1347.3,154.7,2333.8,36.7,649.7,1356.9,2347.5,97.6,70.7
0.101401,653.8,84.8,1348.7,167.2,2324.7,39.8,650.9,1354.3,2347.6,97.3,70.6
0.103401,651.4,82.7,1345.7,165.3,2323.2,40.8,652.2,1351.8,2347.5,97.1,70.6
0.105401,652.6,73.3,1340.7,153.4,2328.0,39.0,653.7,1349.4,2347.3,96.8,70.6
0.107401,656.7,66.9,1338.2,142.4,2336.2,37.6,655.4,1346.9,2347,96.6,70.5
0.109401,660.8,74.0,1343.7,144.4,2344.6,41.3,657.1,1344.5,2346.5,96.4,70.3
0.111401,662.9,91.6,1353.9,153.1,2350.1,52.8,658.8,1342,2345.8,96.2,70.2
0.113401,662.5,96.1,1356.6,151.5,2350.5,64.1,660.6,1339.5,2345,95.9,70.1
0.115401,662.9,85.1,1353.4,139.1,2348.5,64.6,662.3,1337.1,2344,95.7,70.1
0.117401,664.6,70.3,1346.5,124.0,2345.7,54.8,663.9,1334.7,2342.9,95.5,70
0.119401,666.1,64.2,1337.8,114.0,2340.5,42.3,665.4,1332.3,2341.6,95.4,70
0.121401,666.6,69.3,1328.9,106.8,2334.0,31.6,666.7,1330,2340.2,95.2,70.1
0.123401,666.2,73.1,1322.5,98.3,2332.7,25.6,667.7,1327.8,2338.8,95,70.1
0.125401,665.8,67.0,1317.0,89.1,2336.1,22.1,668.6,1325.7,2337.3,94.8,70.1
0.127401,666.4,57.3,1313.3,83.2,2341.2,20.7,669.1,1323.8,2335.9,94.6,70.1
0.129401,667.6,53.6,1314.5,84.8,2344.7,22.0,669.4,1322,2334.4,94.5,70.1
0.131401,668.0,62.9,1322.5,96.8,2342.5,27.5,669.4,1320.4,2333.1,94.3,70
0.133401,665.8,76.8,1327.3,105.3,2336.2,33.7,669.1,1319,2331.9,94.2,69.9
0.135401,663.2,78.2,1324.1,102.0,2332.0,36.5,668.6,1317.8,2330.8,94,69.8
0.137401,663.0,67.3,1318.5,93.0,2332.7,35.7,667.8,1316.7,2330,93.9,69.7
0.139401,664.4,56.7,1315.5,86.0,2336.6,34.0,666.8,1315.9,2329.4,93.7,69.7
0.141401,664.7,57.0,1319.7,87.7,2338.8,35.6,665.7,1315.1,2329,93.6,69.6
0.143401,661.8,65.1,1325.7,94.6,2336.1,42.1,664.4,1314.6,2329,93.5,69.6
0.145401,657.9,67.7,1324.9,96.4,2332.3,47.9,663,1314.1,2329.3,93.3,69.5
0.147401,657.5,60.7,1319.9,92.3,2332.6,47.9,661.6,1313.7,2330,93.2,69.5
0.149401,659.4,52.3,1313.5,89.8,2335.9,47.0,660.1,1313.4,2331,93.1,69.4
0.151401,660.5,53.0,1309.4,97.5,2337.3,52.9,658.7,1313.2,2332.4,93,69.3
0.153401,659.3,65.3,1308.2,112.1,2333.9,66.7,657.4,1313,2334.1,92.9,69.2
0.155401,657.9,78.2,1307.8,117.8,2330.1,74.8,656.2,1312.7,2336.2,92.8,69
0.157401,659.4,76.9,1307.3,112.4,2330.7,70.5,655.1,1312.5,2338.5,92.7,68.8
0.159401,662.5,65.2,1306.1,103.6,2335.3,62.0,654.2,1312.2,2341.2,92.6,68.5
0.161401,663.5,56.5,1304.7,101.2,2341.6,58.6,653.5,1311.9,2344.1,92.5,68.3
0.163401,661.0,60.3,1305.4,115.0,2347.1,65.9,652.9,1311.5,2347.1,92.5,68
0.165401,655.8,72.2,1304.4,134.5,2347.3,78.6,652.6,1311,2350.4,92.4,67.7
0.167401,652.0,74.2,1297.8,139.1,2345.5,85.4,652.4,1310.5,2353.7,92.3,67.4
0.169401,652.7,63.1,1291.8,130.5,2345.5,83.9,652.4,1310,2357,92.3,67
0.171401,655.9,51.6,1292.9,122.2,2347.6,76.8,652.5,1309.4,2360.4,92.2,66.6
0.173401,657.3,47.7,1305.0,124.1,2352.0,71.2,652.7,1308.8,2363.6,92.2,66.1
0.175401,654.2,55.0,1324.7,133.3,2355.0,74.3,653.1,1308.1,2366.7,92.1,65.6
0.177401,648.6,68.0,1336.6,135.7,2353.9,84.3,653.5,1307.5,2369.6,92.1,65
0.179401,645.4,74.1,1334.8,133.6,2354.5,94.6,653.9,1307,2372.2,92.1,64.3
0.181401,646.8,69.5,1326.7,135.3,2363.8,99.4,654.3,1306.4,2374.5,92.1,63.6
0.183401,650.5,64.3,1316.6,147.6,2379.2,98.2,654.7,1306,2376.5,92,62.8
0.185401,652.7,74.0,1306.7,182.7,2391.3,98.0,655,1305.6,2378,92,62
0.187401,652.7,117.3,1296.9,246.4,2398.1,109.7,655.3,1305.3,2379.2,92,61.1
0.189401,654.1,195.1,1289.6,304.3,2401.5,136.5,655.4,1305.1,2379.9,92,60.2
0.191401,662.0,277.3,1286.2,348.4,2409.6,181.8,655.5,1305.1,2380.1,92,59.4
