time,f1,b1,f2,b2,f3,b3,f1p,f2p,f3p,f0,intensity
0.025150,365.1,205.1,932.4,518.1,2274.1,119.3,361.7,914.5,2259.4,148.2,68.5
0.027150,363.8,192.0,904.5,384.7,2271.9,107.8,362.9,915.7,2260.2,147.8,70.1
0.029150,363.5,183.0,901.9,295.7,2270.4,106.3,365,917.8,2261.6,147.4,71.4
0.031150,362.2,167.4,907.0,233.2,2266.7,103.5,367.9,920.6,2263.5,147,72.5
0.033150,362.5,151.3,914.8,196.6,2263.5,91.2,371.4,924.1,2266,146.6,73.5
0.035150,366.5,138.3,925.5,176.9,2262.0,72.1,375.5,928.2,2269,146.1,74.3
0.037150,373.1,129.7,935.5,170.1,2262.0,57.5,380.1,932.7,2272.5,145.7,75
0.039150,380.5,124.1,941.9,169.9,2263.7,48.8,385,937.5,2276.6,145.2,75.7
0.041150,388.5,124.5,945.1,177.6,2267.8,45.0,390.2,942.5,2281.1,144.8,76.3
0.043150,399.3,132.7,950.8,198.5,2275.2,44.5,395.5,947.6,2286.1,144.3,76.9
0.045150,409.8,144.4,959.9,225.6,2284.2,46.6,400.7,952.5,2291.6,143.8,77.4
0.047150,417.8,153.5,967.3,245.9,2293.7,49.9,405.8,957.2,2297.4,143.3,77.8
0.049150,422.4,156.5,968.3,253.9,2302.6,51.3,410.7,961.5,2303.6,142.8,78.1
0.051150,425.8,156.4,968.1,259.5,2312.3,49.7,415.1,965.2,2310.2,142.3,78.4
0.053150,428.1,154.5,970.2,267.5,2321.1,46.5,419.1,968.3,2317,141.8,78.6
0.055150,429.2,149.8,972.6,273.8,2328.3,44.7,422.5,970.7,2323.9,141.3,78.7
0.057150,429.5,140.8,974.8,275.5,2335.5,47.2,425.3,972.1,2331,140.8,78.8
0.059150,428.8,130.5,977.0,273.1,2343.4,56.1,427.4,972.7,2338.2,140.3,78.9
0.061150,427.6,122.2,977.2,269.3,2353.3,73.0,428.8,972.4,2345.3,139.8,79
0.063150,426.2,118.0,974.6,264.3,2363.1,89.7,429.6,971,2352.2,139.3,79
0.065150,424.0,117.1,971.2,257.4,2368.9,91.5,429.6,968.7,2359,138.8,79
0.067150,421.6,120.1,968.1,255.0,2370.1,77.9,429,965.5,2365.5,138.3,78.9
0.069150,419.6,127.5,962.0,261.2,2371.7,62.7,427.9,961.4,2371.6,137.8,78.8
0.071150,417.8,136.8,952.3,272.9,2375.4,52.7,426.2,956.4,2377.3,137.3,78.7
0.073150,415.0,146.6,942.9,290.1,2381.7,46.6,424,950.8,2382.5,136.9,78.7
0.075150,413.0,153.4,938.8,307.1,2388.6,45.0,421.6,944.5,2387.1,136.4,78.6
0.077150,412.3,155.6,934.7,309.2,2394.6,49.7,418.8,937.7,2391.2,135.9,78.6
0.079150,410.9,153.5,926.3,289.3,2396.4,58.8,415.9,930.6,2394.6,135.4,78.6
0.081150,408.7,151.7,917.6,264.5,2394.8,64.1,412.9,923.3,2397.5,134.9,78.5
0.083150,408.1,154.9,911.0,253.2,2393.2,60.4,409.9,915.9,2399.6,134.5,78.5
0.085150,409.2,163.5,902.5,251.2,2393.1,53.4,407.1,908.6,2401.2,134,78.4
0.087150,409.8,173.8,893.4,252.2,2393.8,49.0,404.4,901.5,2402.2,133.6,78.3
0.089150,408.8,180.3,888.1,255.0,2393.7,48.8,402,894.8,2402.6,133.2,78.2
0.091150,407.3,179.5,885.0,256.2,2391.5,52.5,399.9,888.5,2402.6,132.7,78.1
0.093150,405.9,174.3,880.1,251.8,2389.4,58.0,398.1,882.8,2402.1,132.3,78
0.095150,404.2,170.8,873.8,247.1,2390.6,62.8,396.7,877.8,2401.3,131.9,78
0.097150,402.8,171.6,870.2,249.6,2394.6,63.2,395.7,873.6,2400.2,131.5,77.9
0.099150,402.3,171.2,868.9,254.4,2398.3,60.9,395,870.2,2399,131.1,77.9
0.101150,401.7,166.9,869.0,255.0,2401.3,60.4,394.7,867.5,2397.6,130.7,77.8
0.103150,399.7,161.8,871.7,256.0,2406.0,62.5,394.7,865.8,2396.2,130.3,77.8
0.105150,397.9,159.8,877.1,262.3,2410.9,64.5,394.9,864.8,2394.9,129.9,77.8
0.107150,397.2,157.9,881.9,267.7,2411.5,66.6,395.3,864.6,2393.7,129.5,77.8
0.109150,395.8,152.6,882.0,265.0,2407.1,69.9,395.9,865.2,2392.8,129.1,77.7
0.111150,391.8,144.8,879.9,260.6,2401.5,75.1,396.5,866.4,2392,128.7,77.6
0.113150,387.7,137.6,878.5,257.6,2395.4,76.5,397.1,868.1,2391.5,128.3,77.5
0.115150,386.3,132.0,876.2,251.6,2390.0,70.2,397.7,870.2,2391.4,127.9,77.4
0.117150,387.9,131.9,873.7,250.5,2388.3,61.7,398.1,872.6,2391.5,127.5,77.3
0.119150,389.8,138.1,873.8,267.6,2391.1,56.6,398.2,875.2,2391.9,127.2,77.1
0.121150,391.5,145.2,877.0,299.5,2395.8,54.9,398.1,877.8,2392.5,126.8,77
0.123150,394.3,149.1,880.5,328.5,2398.8,54.0,397.7,880.3,2393.3,126.4,76.8
0.125150,396.1,148.6,881.3,334.2,2397.7,55.4,396.9,882.5,2394.3,126,76.7
0.127150,393.8,144.1,881.5,325.5,2393.6,59.5,395.8,884.3,2395.3,125.6,76.6
0.129150,389.5,137.8,883.1,320.3,2389.7,60.1,394.2,885.6,2396.3,125.2,76.4
0.131150,388.5,136.3,882.7,319.4,2389.3,57.8,392.2,886.2,2397.1,124.8,76.3
0.133150,391.0,145.7,879.0,317.7,2391.3,59.1,389.8,886,2397.8,124.3,76.1
0.135150,392.8,162.9,875.3,319.6,2392.8,64.0,387,885,2398.2,123.9,76
0.137150,391.1,175.0,871.0,315.8,2392.7,66.6,383.8,883.1,2398.2,123.5,75.8
0.139150,388.0,171.4,864.9,290.9,2391.7,61.0,380.3,880.3,2397.8,123.1,75.6
0.141150,385.1,160.9,857.0,250.3,2390.9,48.9,376.5,876.4,2396.8,122.7,75.4
0.143150,381.6,155.3,851.8,220.7,2389.0,38.4,372.5,871.6,2395.3,122.3,75.2
0.145150,376.5,155.2,849.3,208.3,2385.2,32.6,368.3,865.9,2393.1,121.8,75.1
0.147150,372.2,155.4,846.7,204.0,2381.9,31.1,363.9,859.2,2390.3,121.4,74.9
0.149150,368.0,154.6,842.7,197.2,2379.6,33.3,359.5,851.7,2386.9,121,74.7
0.151150,361.4,154.7,839.7,191.1,2377.2,41.1,355,843.5,2382.9,120.6,74.5
0.153150,352.4,155.5,838.2,191.5,2372.7,55.8,350.5,834.7,2378.4,120.1,74.2
0.155150,345.1,154.7,836.4,194.2,2367.6,68.4,346.2,825.4,2373.3,119.7,73.9
0.157150,338.9,150.6,833.3,188.8,2365.2,73.0,342,815.7,2367.8,119.3,73.5
0.159150,330.7,144.0,830.6,174.8,2366.1,74.3,337.9,805.9,2362,118.8,73.1
0.161150,320.1,139.2,829.2,166.8,2368.0,81.2,334.1,796,2356,118.4,72.6
0.163150,310.2,140.2,825.9,176.2,2370.4,96.3,330.5,786.2,2349.9,118,72
0.165150,304.6,150.5,818.2,205.0,2373.6,108.2,327.2,776.8,2343.8,117.6,71.3
0.167150,302.3,176.3,805.1,264.9,2376.9,109.3,324.1,767.8,2337.9,117.1,70.6
0.169150,305.0,220.3,787.2,376.9,2376.5,106.2,321.4,759.5,2332.3,116.7,69.8
0.171150,318.6,271.1,760.3,580.6,2368.0,114.6,319.1,751.9,2327.1,116.3,68.9
0.173150,335.7,286.7,736.9,808.5,2352.0,143.5,317.1,745.2,2322.5,115.9,68
0.175150,341.3,281.0,728.5,931.0,2326.9,193.1,315.4,739.6,2318.6,115.5,66.9
0.177150,339.4,297.4,723.4,942.2,2294.0,233.5,314.1,735.1,2315.5,115.1,65.8
0.179150,332.3,370.9,694.6,919.8,2266.5,250.3,313.2,731.9,2313.2,114.7,64.6
0.181150,310.9,463.7,666.5,904.9,2258.4,263.1,312.7,729.9,2311.7,114.4,63.4
0.183150,291.2,422.6,710.9,1040.6,2266.0,281.2,312.5,729.2,2311.3,114,62.3
