time,f1,b1,f2,b2,f3,b3,f1p,f2p,f3p,f0,intensity
0.025637,312.7,138.8,989.5,205.3,2232.6,41.2,321.8,1004,2224.7,107.6,77.6
0.027637,320.7,170.9,1003.4,228.3,2226.3,48.7,322.8,1007.6,2224.3,107.8,77.7
0.029637,327.6,190.0,1011.9,257.5,2217.1,53.5,324.7,1013.4,2223.8,108,77.8
0.031637,328.6,191.4,1016.5,262.8,2210.3,52.1,327.3,1021.1,2223.1,108.3,77.8
0.033637,327.5,188.5,1024.8,247.7,2209.1,49.4,330.6,1030.6,2222.4,108.5,77.9
0.035637,330.9,193.5,1042.3,237.4,2214.4,52.2,334.8,1041.3,2221.6,108.8,77.9
0.037637,340.9,204.8,1063.5,239.7,2224.8,59.3,339.7,1052.9,2220.8,109,78
0.039637,351.2,209.9,1077.7,235.4,2232.7,61.6,345.5,1065,2220.2,109.3,78
0.041637,356.8,211.1,1086.6,218.7,2234.7,59.5,352,1077.1,2219.7,109.6,78.1
0.043637,361.0,220.4,1098.9,203.1,2232.0,59.1,359.4,1089,2219.5,109.8,78.2
0.045637,369.2,241.3,1113.4,196.7,2225.6,60.9,367.5,1100.2,2219.6,110.1,78.3
0.047637,382.0,253.2,1120.5,188.0,2219.0,58.8,376.3,1110.6,2220.1,110.4,78.4
0.049637,393.3,243.5,1119.3,166.6,2215.4,52.2,385.7,1120,2220.9,110.6,78.5
0.051637,399.9,226.8,1117.7,140.4,2214.7,46.3,395.6,1128.2,2222.1,110.9,78.6
0.053637,404.5,224.2,1122.0,124.0,2216.3,45.0,405.9,1135.3,2223.8,111.1,78.7
0.055637,412.1,242.1,1130.9,123.6,2221.0,47.4,416.5,1141.4,2225.8,111.3,78.9
0.057637,423.3,263.6,1139.0,130.3,2228.2,48.4,427.2,1146.7,2228.1,111.5,79
0.059637,433.7,276.6,1144.9,135.5,2235.7,47.9,437.8,1151.3,2230.8,111.7,79.2
0.061637,442.2,292.5,1151.6,143.6,2242.1,50.4,448.3,1155.4,2233.9,111.9,79.3
0.063637,452.3,317.7,1160.5,160.8,2245.9,58.2,458.4,1159.4,2237.1,112.1,79.5
0.065637,466.3,330.1,1168.4,178.5,2245.3,67.5,468.1,1163.6,2240.6,112.2,79.6
0.067637,478.1,315.0,1171.2,180.4,2241.3,70.5,477.3,1168,2244.3,112.3,79.7
0.069637,486.0,295.3,1173.0,176.7,2238.9,70.3,485.7,1173,2248.2,112.4,79.8
0.071637,492.8,293.9,1179.1,189.4,2242.1,75.8,493.5,1178.6,2252.2,112.5,79.9
0.073637,500.7,301.8,1189.6,220.6,2249.4,86.9,500.4,1185,2256.3,112.6,79.9
0.075637,508.9,291.9,1198.1,242.6,2255.6,91.8,506.6,1192.1,2260.5,112.6,80
0.077637,514.9,264.4,1201.7,239.1,2258.9,86.3,511.9,1199.9,2264.8,112.7,80
0.079637,518.2,233.3,1205.0,224.6,2262.0,78.6,516.4,1208.2,2269.2,112.7,80.1
0.081637,518.9,208.7,1213.4,217.7,2268.6,77.5,520.3,1216.8,2273.8,112.6,80.1
0.083637,520.1,192.6,1225.5,220.0,2279.2,83.0,523.4,1225.6,2278.3,112.6,80.1
0.085637,524.5,180.8,1234.4,220.1,2289.5,88.6,525.9,1234.1,2283,112.5,80.2
0.087637,530.9,174.3,1240.3,219.7,2297.2,94.3,527.8,1242.2,2287.6,112.5,80.2
0.089637,535.6,178.4,1249.3,228.7,2305.4,106.0,529.3,1249.7,2292.2,112.4,80.2
0.091637,536.1,190.2,1260.8,240.2,2314.4,120.8,530.3,1256.2,2296.7,112.2,80.2
0.093637,534.8,196.5,1268.3,235.1,2319.5,128.6,530.9,1261.7,2301,112.1,80.3
0.095637,534.8,192.0,1270.5,211.1,2318.1,130.4,531.2,1266,2305,112,80.3
0.097637,534.4,185.4,1271.4,183.5,2311.7,134.9,531.1,1269,2308.6,111.8,80.3
0.099637,530.2,186.4,1271.8,165.3,2304.2,142.1,530.7,1270.9,2311.7,111.6,80.3
0.101637,524.4,191.0,1270.1,155.3,2301.2,140.7,529.9,1271.7,2314.1,111.4,80.3
0.103637,522.4,189.1,1266.6,146.4,2303.0,130.8,528.8,1271.5,2315.8,111.2,80.3
0.105637,523.6,182.4,1263.8,137.2,2305.8,122.3,527.4,1270.6,2316.6,111,80.3
0.107637,522.4,182.9,1263.5,134.4,2305.2,123.4,525.4,1269.3,2316.4,110.7,80.3
0.109637,517.0,191.2,1263.6,138.0,2300.6,129.9,523.1,1267.8,2315.1,110.5,80.2
0.111637,512.6,195.4,1262.4,141.0,2297.7,130.3,520.3,1266.4,2312.7,110.2,80.1
0.113637,512.2,189.0,1260.7,139.2,2299.7,123.7,517,1265.3,2309.2,110,80
0.115637,512.5,175.5,1260.7,135.3,2303.3,117.0,513.2,1264.8,2304.7,109.7,79.8
0.117637,509.2,161.5,1264.0,135.2,2303.4,115.3,509,1265,2299.1,109.4,79.5
0.119637,503.4,147.8,1269.4,138.3,2297.0,115.8,504.3,1266.2,2292.5,109.1,79.3
0.121637,500.0,132.0,1272.4,135.8,2288.5,111.1,499.4,1268.2,2285.3,108.9,79.1
0.123637,499.3,117.6,1274.1,128.2,2283.0,105.0,494.2,1271.1,2277.4,108.6,78.9
0.125637,497.4,112.5,1280.7,126.4,2281.1,106.2,488.9,1274.8,2269.2,108.3,78.8
0.127637,492.4,117.6,1291.9,132.8,2280.7,113.0,483.6,1279.1,2260.9,108,78.7
0.129637,487.3,122.2,1298.6,135.1,2277.6,112.6,478.4,1283.8,2252.7,107.7,78.6
0.131637,484.7,119.9,1297.5,127.9,2269.9,102.7,473.6,1288.7,2245,107.4,78.5
0.133637,482.2,116.1,1293.8,118.8,2258.2,90.8,469.2,1293.4,2237.9,107.2,78.3
0.135637,475.8,118.9,1293.1,117.1,2241.4,82.4,465.3,1297.7,2231.7,106.9,78.1
0.137637,464.4,127.7,1295.9,121.4,2221.4,76.8,462.2,1301.4,2226.7,106.6,77.8
0.139637,453.0,132.9,1298.1,120.8,2205.1,70.9,459.9,1304.2,2222.9,106.4,77.5
0.141637,443.8,133.6,1298.1,113.2,2194.3,65.4,458.5,1305.9,2220.7,106.2,77.2
0.143637,431.5,137.3,1298.9,105.9,2185.2,63.7,458,1306.5,2219.9,105.9,76.9
