time,f1,b1,f2,b2,f3,b3,f1p,f2p,f3p,f0,intensity
0.025569,337.7,88.4,1989.9,143.8,2409.5,92.6,356.2,1976.8,2389.6,110.1,70
0.027569,345.5,88.8,1972.8,180.9,2415.5,111.2,357.8,1976,2389,110.6,70.4
0.029569,351.4,85.1,1967.3,207.8,2415.8,150.0,360.4,1974.9,2388.1,111,70.9
0.031569,359.1,84.3,1973.0,177.3,2412.3,208.0,363.8,1973.3,2386.8,111.5,71.3
0.033569,369.7,86.2,1970.6,127.0,2396.7,267.2,368.1,1971.4,2385.3,111.9,71.6
0.035569,381.9,86.2,1963.7,97.3,2364.5,297.4,372.8,1969.2,2383.5,112.4,72
0.037569,390.3,82.9,1959.1,80.6,2345.4,282.0,378,1966.7,2381.6,112.9,72.3
0.039569,394.8,80.4,1957.5,68.4,2344.3,250.7,383.4,1964.2,2379.7,113.4,72.7
0.041569,399.4,80.4,1957.8,61.9,2348.3,221.1,388.7,1961.5,2377.7,113.9,73.1
0.043569,404.4,81.3,1958.5,64.2,2348.2,203.8,393.9,1958.9,2375.8,114.4,73.4
0.045569,407.7,79.8,1958.3,68.3,2347.3,191.7,398.6,1956.3,2374,115,73.8
0.047569,409.2,75.2,1958.3,66.4,2355.9,173.5,402.9,1953.8,2372.5,115.5,74.1
0.049569,410.0,70.2,1960.6,63.1,2374.3,153.6,406.4,1951.4,2371.2,116,74.5
0.051569,410.4,68.0,1963.3,66.2,2388.3,138.8,409.3,1949.2,2370.1,116.5,74.8
0.053569,408.8,68.5,1962.4,73.7,2389.6,132.4,411.3,1947,2369.4,117.1,75.2
0.055569,405.7,68.5,1956.3,76.8,2383.5,125.6,412.6,1944.9,2368.9,117.6,75.5
0.057569,404.4,67.9,1947.8,73.4,2376.8,114.6,413.2,1942.9,2368.8,118.1,75.8
0.059569,405.8,68.7,1939.0,70.8,2373.4,107.2,413,1940.8,2368.9,118.6,76
0.061569,407.3,71.1,1929.9,73.6,2374.5,107.9,412.3,1938.7,2369.2,119.1,76.3
0.063569,406.8,72.8,1923.8,75.3,2377.9,107.8,411.1,1936.4,2369.7,119.7,76.5
0.065569,405.8,73.4,1921.7,71.0,2380.8,101.1,409.5,1934,2370.3,120.2,76.6
0.067569,405.1,76.0,1921.3,64.8,2382.9,92.1,407.8,1931.2,2371,120.7,76.8
0.069569,403.7,82.3,1920.4,62.4,2382.4,86.8,405.9,1928.2,2371.6,121.2,77
0.071569,401.2,88.1,1918.3,62.4,2378.5,83.4,404.2,1924.8,2372.1,121.7,77.1
0.073569,399.6,90.5,1916.0,60.8,2373.0,78.4,402.6,1921.1,2372.5,122.2,77.3
0.075569,400.2,92.7,1915.2,59.1,2368.6,74.6,401.2,1916.9,2372.6,122.6,77.4
0.077569,401.7,97.9,1916.1,61.3,2365.7,76.1,400.2,1912.4,2372.4,123.1,77.6
0.079569,402.6,103.1,1916.6,65.9,2364.2,80.1,399.6,1907.6,2371.9,123.6,77.7
0.081569,403.0,103.5,1912.2,66.2,2363.7,79.8,399.3,1902.5,2370.9,124.1,77.8
0.083569,403.7,102.8,1903.0,62.2,2362.7,77.3,399.3,1897.1,2369.6,124.5,78
0.085569,403.9,104.7,1891.4,58.6,2360.4,77.0,399.6,1891.6,2367.9,125,78.1
0.087569,403.3,107.0,1881.6,56.0,2357.1,76.6,400.2,1886,2365.7,125.4,78.2
0.089569,403.4,105.2,1875.8,53.2,2354.2,74.0,400.9,1880.3,2363.1,125.9,78.3
0.091569,404.7,102.7,1873.9,52.0,2352.4,72.7,401.7,1874.6,2360.2,126.3,78.4
0.093569,406.0,104.2,1874.6,54.6,2351.2,76.0,402.5,1869,2356.9,126.7,78.4
0.095569,406.4,107.9,1875.0,59.6,2350.1,80.0,403.2,1863.5,2353.4,127.2,78.5
0.097569,406.9,109.1,1870.9,61.9,2347.7,76.1,403.7,1858,2349.6,127.6,78.6
0.099569,406.9,109.6,1861.0,62.1,2344.1,66.3,403.9,1852.7,2345.7,128,78.6
0.101569,404.8,111.7,1848.5,63.7,2341.6,59.6,404,1847.5,2341.7,128.4,78.7
0.103569,401.3,113.1,1838.2,65.6,2341.3,57.8,403.8,1842.2,2337.7,128.7,78.8
0.105569,399.3,112.9,1831.1,64.3,2342.3,57.5,403.4,1837,2333.7,129.1,78.9
0.107569,398.9,114.7,1825.3,61.5,2342.9,58.5,402.7,1831.6,2329.8,129.5,78.9
0.109569,397.9,121.3,1818.3,59.6,2341.0,61.6,402,1826,2326.1,129.8,79
0.111569,396.2,129.6,1811.0,57.3,2336.5,64.1,401.3,1820.1,2322.6,130.2,79
0.113569,395.6,134.2,1806.4,54.6,2331.3,65.3,400.7,1813.8,2319.3,130.5,79
0.115569,395.6,136.1,1804.0,54.6,2326.5,70.7,400.2,1807,2316.4,130.8,79
0.117569,395.1,137.6,1800.4,58.6,2320.5,83.8,400.1,1799.6,2313.7,131.1,79
0.119569,394.8,135.1,1792.6,63.0,2312.5,97.1,400.3,1791.6,2311.4,131.4,79
0.121569,396.1,128.6,1781.8,64.6,2304.5,99.2,401,1782.9,2309.3,131.7,78.9
0.123569,398.9,123.1,1769.5,66.1,2297.1,91.8,402.3,1773.6,2307.6,132,78.8
0.125569,402.9,121.5,1757.4,70.3,2292.1,81.5,404.1,1763.8,2306.3,132.3,78.7
0.127569,408.6,121.5,1747.5,73.5,2290.8,71.4,406.5,1753.3,2305.1,132.6,78.7
0.129569,415.8,122.3,1739.7,73.9,2292.4,61.6,409.5,1742.5,2304.3,132.8,78.6
0.131569,422.7,126.1,1732.9,73.9,2294.8,54.2,413,1731.4,2303.7,133.1,78.6
0.133569,428.5,130.6,1726.2,74.7,2296.9,49.0,416.9,1720.1,2303.3,133.3,78.6
0.135569,433.2,131.1,1720.4,75.1,2298.8,44.8,421.1,1709,2303.1,133.5,78.6
0.137569,436.7,128.5,1715.0,78.0,2300.8,41.6,425.4,1698.2,2303,133.7,78.6
0.139569,438.1,127.2,1709.4,87.8,2302.5,40.4,429.8,1688,2303,133.9,78.6
0.141569,438.5,127.0,1701.6,101.5,2303.6,39.7,434,1678.5,2303.1,134.1,78.6
0.143569,439.4,126.6,1689.0,111.3,2304.8,37.1,438,1670.1,2303.2,134.3,78.6
0.145569,440.0,128.0,1671.7,113.7,2306.1,33.7,441.4,1662.8,2303.3,134.5,78.6
0.147569,439.4,131.6,1653.8,112.6,2307.2,31.6,444.3,1657,2303.5,134.6,78.5
0.149569,438.1,134.3,1638.6,109.9,2308.4,30.3,446.4,1652.7,2303.6,134.8,78.5
0.151569,437.0,134.8,1626.8,106.9,2310.4,28.5,447.7,1650.1,2303.7,134.9,78.5
0.153569,435.1,135.1,1613.6,105.8,2313.3,27.0,448.1,1649.2,2303.7,135.1,78.5
