time,f1,b1,f2,b2,f3,b3,f1p,f2p,f3p,f0,intensity
0.025986,745.2,339.9,1239.0,1997.7,2405.4,70.7,789.9,1091.9,2414.2,174.9,77.1
0.027986,768.4,334.1,1125.6,1833.7,2401.9,59.5,785.9,1090.5,2411,175,77.2
0.029986,784.7,333.7,1046.3,1712.0,2398.9,55.5,779.6,1088.4,2405.8,175,77.3
0.031986,790.2,330.7,1018.7,1602.5,2394.3,57.6,771.3,1085.7,2399.1,175.1,77.3
0.033986,783.5,326.2,1025.7,1464.3,2388.9,64.2,761.6,1082.9,2391.2,175.2,77.4
0.035986,770.8,317.9,1046.0,1307.9,2384.0,72.5,751.1,1080.3,2382.7,175.3,77.5
0.037986,755.3,303.9,1068.6,1157.4,2379.5,80.0,740.4,1078.2,2374,175.3,77.6
0.039986,739.6,288.7,1078.1,1027.2,2373.5,83.4,730.2,1077,2365.7,175.4,77.7
0.041986,724.1,277.8,1068.0,889.8,2365.8,85.2,721,1077.1,2358.3,175.5,77.8
0.043986,707.5,263.0,1064.3,722.5,2358.0,87.9,713.3,1078.7,2352.2,175.6,78
0.045986,696.9,240.9,1076.5,595.7,2354.0,89.6,707.5,1082.1,2347.6,175.6,78.3
0.047986,693.0,219.0,1091.9,504.6,2354.4,88.8,703.6,1087.4,2344.6,175.7,78.5
0.049986,694.1,203.3,1105.9,441.2,2357.4,86.7,701.8,1094.5,2343.3,175.8,78.8
0.051986,698.3,192.4,1118.4,396.7,2359.0,84.7,701.7,1103.4,2343.6,175.8,79
0.053986,704.2,182.8,1130.5,359.8,2357.2,83.0,703.3,1113.9,2345.2,175.9,79.2
0.055986,709.3,173.4,1141.5,328.8,2352.4,82.6,705.9,1125.6,2347.9,175.9,79.4
0.057986,712.4,164.9,1150.6,303.1,2347.1,83.7,709.2,1138.3,2351.3,176,79.6
0.059986,715.1,157.5,1161.0,281.1,2342.3,85.5,712.6,1151.5,2355,176,79.7
0.061986,718.0,151.5,1173.1,263.2,2338.3,88.9,715.6,1164.7,2358.7,176,79.7
0.063986,718.7,144.1,1182.1,242.3,2335.0,100.4,717.7,1177.7,2362.1,176,79.8
0.065986,715.8,134.9,1185.3,222.0,2334.7,124.8,718.6,1189.9,2365,176,79.8
0.067986,712.4,125.4,1188.6,207.4,2338.9,156.1,718.1,1201.1,2367.2,176,79.8
0.069986,709.6,116.7,1196.0,197.4,2348.1,185.3,716,1211,2368.8,176,79.7
0.071986,707.5,109.8,1207.1,189.3,2361.9,202.2,712.5,1219.4,2369.8,176,79.7
0.073986,705.3,104.4,1218.9,178.1,2377.6,206.5,707.6,1226.2,2370.6,176,79.6
0.075986,701.9,99.8,1229.3,159.4,2393.0,200.8,701.8,1231.5,2371.2,175.9,79.5
0.077986,697.7,96.7,1235.7,135.9,2404.5,192.8,695.5,1235.3,2372.2,175.9,79.4
0.079986,693.6,95.7,1238.4,114.4,2412.1,190.2,689,1237.8,2373.7,175.8,79.3
0.081986,689.3,97.0,1238.3,96.0,2416.8,192.5,682.9,1239.2,2376.2,175.7,79.1
0.083986,685.2,100.5,1237.3,83.2,2417.4,194.3,677.5,1239.8,2379.7,175.6,78.9
0.085986,680.8,107.7,1237.0,75.1,2411.0,191.5,673.1,1239.9,2384.3,175.5,78.7
0.087986,676.8,118.5,1238.9,72.3,2395.9,181.9,670,1239.8,2390.1,175.4,78.4
0.089986,673.7,129.3,1242.7,73.6,2379.8,168.8,668.2,1239.7,2396.7,175.3,78.2
0.091986,670.5,137.1,1246.6,76.1,2370.7,158.8,667.4,1239.8,2403.9,175.2,78
0.093986,666.5,141.6,1247.1,76.4,2372.7,156.7,667.4,1240.3,2410.9,175.1,77.8
0.095986,661.7,146.8,1244.2,73.8,2380.9,158.5,667.7,1241.3,2417.3,174.9,77.6
0.097986,655.1,155.7,1242.1,71.6,2388.7,154.9,667.7,1242.8,2422.1,174.8,77.5
0.099986,648.8,162.1,1245.1,73.5,2388.9,138.8,666.6,1244.8,2424.7,174.6,77.4
0.101986,645.3,158.7,1252.3,78.4,2389.3,122.7,663.8,1247.1,2424.1,174.5,77.3
0.103986,644.8,151.5,1259.2,81.8,2396.8,110.6,658.6,1249.7,2419.7,174.3,77.2
0.105986,645.6,153.4,1261.0,80.9,2406.6,99.2,650.2,1252.4,2410.8,174.1,77.1
0.107986,645.5,173.3,1258.4,77.1,2415.6,88.5,638.2,1255,2397,173.9,76.8
0.109986,640.2,219.0,1254.5,74.3,2421.9,85.7,622.4,1257.3,2378.2,173.7,76.5
0.111986,625.3,289.4,1251.4,76.0,2425.7,96.0,602.7,1259.3,2354.5,173.6,76
0.113986,597.1,379.0,1249.7,83.5,2429.8,115.4,579.3,1260.7,2326.2,173.4,75.5
0.115986,562.9,458.5,1250.7,94.6,2433.0,122.5,552.5,1261.6,2294,173.2,74.9
0.117986,529.6,516.2,1254.4,105.0,2306.5,1747.0,523.3,1262,2258.8,173,74.3
0.119986,491.7,559.6,1259.2,112.7,2150.9,1884.6,492.4,1261.7,2221.8,172.8,73.8
0.121986,453.1,571.8,1261.7,116.1,2061.6,1796.8,460.9,1261.1,2184.3,172.6,73.2
0.123986,414.4,549.2,1260.3,115.3,2024.3,1543.5,430.2,1260,2147.8,172.4,72.5
0.125986,381.2,498.4,1255.6,110.9,2006.4,1256.6,401.4,1258.8,2113.7,172.3,71.8
0.127986,358.5,438.2,1251.6,105.4,1995.7,1049.0,375.8,1257.5,2083.6,172.1,71
0.129986,345.1,392.6,1252.1,102.3,2000.6,971.7,354.6,1256.3,2058.6,171.9,70
0.131986,340.4,384.3,1257.4,106.4,2032.3,1072.2,338.7,1255.3,2039.9,171.8,68.9
0.133986,341.5,405.3,1263.5,120.4,2094.1,1361.2,328.8,1254.7,2028.3,171.6,67.7
0.135986,346.4,445.1,1270.7,149.9,2251.5,2030.1,325.5,1254.5,2024.4,171.5,66.2
