time,f1,b1,f2,b2,f3,b3,f1p,f2p,f3p,f0,intensity
0.025415,536.6,151.9,1139.3,653.3,2471.3,32.6,552.8,1167.6,2488.1,158.5,80.8
0.027415,548.1,161.0,1163.3,685.1,2474.1,29.4,554.6,1175.3,2487,158.8,80.8
0.029415,562.3,168.5,1212.2,716.0,2476.3,27.0,557.6,1187.7,2485.3,159.2,80.8
0.031415,575.4,172.3,1261.7,726.5,2477.5,26.3,561.5,1204.4,2483,159.5,80.8
0.033415,583.7,172.8,1284.5,743.0,2477.5,28.3,566.4,1224.7,2480.2,159.9,80.8
0.035415,586.8,170.7,1282.8,769.0,2477.6,34.0,572.1,1247.7,2477.1,160.3,80.8
0.037415,586.5,165.9,1267.8,782.5,2479.2,44.7,578.3,1272.5,2473.9,160.8,80.8
0.039415,586.1,158.3,1253.7,781.6,2482.1,59.8,585,1298,2470.6,161.2,80.8
0.041415,588.2,149.2,1255.8,784.2,2482.7,73.3,591.8,1323.2,2467.5,161.7,80.8
0.043415,592.7,139.7,1282.3,793.3,2477.2,75.0,598.7,1347.1,2464.7,162.2,80.8
0.045415,598.3,130.0,1326.8,794.2,2468.3,64.5,605.4,1368.7,2462.2,162.7,80.9
0.047415,603.3,120.9,1365.7,793.0,2460.5,52.4,611.8,1387,2460.3,163.2,80.9
0.049415,606.6,113.3,1384.0,805.7,2455.4,44.6,617.5,1401.3,2459,163.8,81
0.051415,609.9,107.0,1392.4,821.8,2453.9,40.0,622.6,1411,2458.3,164.3,81
0.053415,615.0,102.8,1410.5,828.2,2456.3,36.8,626.9,1415.7,2458.2,164.8,81
0.055415,621.6,101.4,1440.3,822.4,2460.9,34.4,630.3,1415,2458.8,165.4,81.1
0.057415,628.2,102.8,1467.7,815.2,2465.7,33.3,632.7,1409.1,2459.8,166,81.1
0.059415,633.6,108.1,1480.4,818.1,2470.7,34.0,634,1398,2461.4,166.5,81
0.061415,637.4,118.6,1466.8,829.9,2475.7,36.9,634.4,1382.2,2463.2,167.1,81
0.063415,639.5,134.3,1424.5,838.6,2479.7,41.4,633.7,1362.1,2465.2,167.7,80.9
0.065415,641.3,154.3,1373.3,833.6,2481.5,46.7,632.2,1338.4,2467.3,168.3,80.8
0.067415,642.7,178.7,1320.8,827.1,2481.3,53.3,629.8,1311.9,2469.2,168.9,80.7
0.069415,639.2,204.8,1245.6,798.2,2479.0,62.6,626.6,1283.6,2470.8,169.4,80.6
0.071415,629.0,225.1,1175.7,710.5,2472.8,72.9,622.8,1254.3,2472,170,80.5
0.073415,619.1,238.1,1145.2,635.0,2462.7,78.1,618.6,1224.9,2472.6,170.6,80.3
0.075415,612.2,247.9,1134.4,583.1,2451.7,74.1,613.9,1196.3,2472.6,171.1,80.2
0.077415,606.3,255.3,1126.9,526.3,2443.6,63.4,609,1169.5,2472,171.7,80
0.079415,601.7,261.8,1119.7,470.9,2440.0,51.9,604,1145,2470.6,172.2,79.9
0.081415,599.3,268.1,1113.8,429.3,2439.8,43.0,599,1123.5,2468.6,172.7,79.8
0.083415,597.7,272.9,1109.8,398.1,2441.6,37.4,594.1,1105.5,2465.9,173.3,79.7
0.085415,594.6,274.7,1107.5,368.4,2444.4,34.2,589.3,1091.1,2462.8,173.8,79.6
0.087415,589.2,273.8,1106.2,333.1,2447.9,32.5,584.7,1080.6,2459.3,174.3,79.5
0.089415,582.0,272.4,1104.7,292.2,2451.7,31.3,580.4,1073.8,2455.6,174.8,79.4
0.091415,574.9,273.7,1102.9,253.8,2455.1,30.4,576.3,1070.6,2451.8,175.3,79.3
0.093415,570.0,279.2,1101.0,224.9,2458.0,29.8,572.5,1070.6,2448.2,175.7,79.3
0.095415,566.8,288.3,1099.0,206.5,2460.6,29.9,568.8,1073.4,2444.9,176.2,79.2
0.097415,563.3,297.2,1097.0,195.4,2462.6,30.4,565.2,1078.3,2442.1,176.6,79.2
0.099415,558.1,301.2,1095.7,187.5,2464.3,31.4,561.7,1084.7,2439.9,177.1,79.2
0.101415,552.2,298.4,1095.7,181.0,2466.2,32.8,558.2,1092.1,2438.4,177.5,79.2
0.103415,547.3,290.6,1097.5,176.2,2468.3,35.1,554.4,1099.6,2437.7,177.9,79.2
0.105415,543.7,279.9,1100.2,173.1,2469.8,39.0,550.5,1106.8,2437.8,178.3,79.3
0.107415,540.1,267.3,1102.7,170.9,2469.9,44.7,546.1,1113,2438.5,178.7,79.3
0.109415,536.0,252.6,1104.3,168.7,2467.8,51.9,541.3,1117.8,2439.9,179,79.4
0.111415,530.9,234.7,1105.1,165.3,2462.3,59.0,535.9,1120.9,2441.7,179.4,79.4
0.113415,524.5,214.5,1104.8,161.5,2452.7,65.0,529.8,1122,2443.6,179.7,79.5
0.115415,517.5,195.4,1103.5,159.9,2439.1,67.6,523,1121,2445.5,180,79.5
0.117415,510.7,179.3,1101.8,161.4,2423.7,63.9,515.4,1118,2447,180.3,79.6
0.119415,505.2,167.3,1100.6,166.5,2411.2,54.6,507,1113.1,2447.8,180.6,79.6
0.121415,501.2,160.1,1100.3,175.2,2403.9,43.1,497.8,1106.7,2447.4,180.8,79.6
0.123415,496.8,154.5,1099.7,184.7,2400.3,33.1,487.8,1099.2,2445.6,181.1,79.5
0.125415,490.3,149.9,1096.6,194.4,2398.3,26.2,477,1090.9,2442,181.3,79.5
0.127415,482.0,150.6,1091.2,209.1,2396.8,21.6,465.5,1082.5,2436.3,181.5,79.4
0.129415,472.0,158.8,1084.5,230.9,2394.8,18.7,453.4,1074.5,2428.2,181.7,79.3
0.131415,460.1,173.2,1076.9,254.2,2392.2,17.4,440.7,1067.4,2417.5,181.8,79.2
0.133415,445.7,192.7,1069.0,271.0,2389.3,17.7,427.6,1061.7,2404.1,181.9,79.1
0.135415,428.9,216.8,1063.1,278.2,2386.1,19.8,414.2,1057.9,2387.9,182.1,79
0.137415,409.6,240.8,1060.5,275.1,2381.7,23.8,400.6,1056.3,2369,182.1,78.9
0.139415,387.9,259.2,1061.4,264.9,2374.5,30.3,386.9,1057.1,2347.6,182.2,78.8
0.141415,365.9,275.8,1065.6,259.3,2362.6,39.2,373.3,1060.6,2323.9,182.3,78.7
0.143415,345.0,296.2,1072.2,267.5,2342.8,49.5,360,1066.6,2298.1,182.3,78.6
0.145415,325.3,313.5,1080.0,282.8,2313.5,57.7,347.1,1075.2,2270.8,182.3,78.6
0.147415,308.5,314.0,1088.8,288.8,2278.8,59.5,334.6,1085.9,2242.5,182.3,78.6
0.149415,295.9,300.4,1098.1,280.4,2245.2,57.2,322.8,1098.5,2213.6,182.2,78.5
0.151415,286.6,285.1,1107.1,265.8,2214.9,57.0,311.8,1112.4,2184.8,182.2,78.5
0.153415,279.9,276.6,1116.1,255.4,2187.9,64.8,301.6,1127.2,2156.8,182.1,78.5
0.155415,275.1,279.5,1126.9,257.6,2163.9,90.8,292.4,1142.2,2130.2,182.1,78.4
0.157415,272.2,294.0,1141.4,277.3,2140.1,160.8,284.2,1156.8,2105.6,182,78.4
0.159415,270.9,318.7,1161.4,319.7,2103.5,329.7,277.2,1170.4,2083.7,181.9,78.4
0.161415,271.4,351.4,1191.1,389.2,2022.2,632.8,271.4,1182.4,2064.9,181.8,78.5
0.163415,276.6,360.0,1228.0,439.3,1913.3,935.4,266.8,1192.3,2049.7,181.7,78.5
0.165415,286.4,310.2,1236.1,405.8,1899.7,1088.4,263.4,1199.8,2038.6,181.6,78.7
0.167415,293.7,226.0,1204.2,329.9,2002.5,1082.1,261.4,1204.4,2031.8,181.5,78.9
0.169415,295.8,148.5,1155.0,262.5,2157.4,979.8,260.8,1205.9,2029.6,181.4,79.1
