time,f1,b1,f2,b2,f3,b3,f1p,f2p,f3p,f0,intensity
0.025524,433.4,198.5,1439.8,325.8,2221.9,426.6,498.8,1378.2,2111,159.5,70.9
0.027524,458.3,180.0,1420.7,370.3,2187.3,378.7,500.5,1376.8,2112.5,159.4,72.5
0.029524,475.8,162.6,1392.9,370.7,2154.1,287.2,503.3,1374.4,2115,159.4,73.8
0.031524,489.2,153.0,1372.8,317.7,2133.9,203.9,507.1,1371.2,2118.3,159.3,74.9
0.033524,503.5,153.5,1361.9,248.1,2122.7,149.9,512,1367.2,2122.6,159.3,75.8
0.035524,518.9,159.1,1354.7,198.1,2117.0,120.8,517.9,1362.4,2127.8,159.2,76.5
0.037524,534.5,165.6,1348.3,166.8,2115.1,101.9,524.6,1357,2133.8,159.2,77.2
0.039524,547.5,171.3,1340.6,149.7,2115.4,91.2,532.1,1351,2140.5,159.1,77.7
0.041524,558.9,175.2,1329.5,140.6,2117.3,89.7,540.3,1344.7,2148,159.1,78.2
0.043524,570.9,175.6,1316.9,134.6,2121.9,95.2,549.1,1338,2156.1,159.1,78.6
0.045524,584.0,171.0,1305.7,126.4,2130.0,102.4,558.4,1331.1,2164.7,159,79
0.047524,596.9,164.7,1298.0,115.3,2140.8,109.4,568,1324.2,2173.9,159,79.4
0.049524,607.8,160.8,1294.1,106.2,2153.2,116.8,577.9,1317.3,2183.5,159,79.7
0.051524,617.4,158.0,1291.3,100.4,2166.4,124.4,588,1310.7,2193.5,159,80
0.053524,624.8,154.6,1287.6,97.5,2177.5,131.9,598,1304.3,2203.8,159,80.3
0.055524,630.2,151.9,1283.6,96.0,2186.2,142.1,608,1298.4,2214.3,159,80.5
0.057524,634.0,150.2,1280.8,95.6,2194.5,157.0,617.7,1292.9,2224.9,159.1,80.7
0.059524,637.0,149.1,1279.6,97.3,2204.8,177.5,627.1,1288.1,2235.6,159.1,80.8
0.061524,639.7,148.9,1279.7,101.6,2217.9,203.8,636.2,1283.9,2246.4,159.1,80.8
0.063524,643.1,150.7,1281.3,108.1,2235.1,236.5,644.7,1280.4,2257.2,159.2,80.9
0.065524,647.5,156.2,1284.1,116.0,2255.5,268.7,652.6,1277.7,2267.8,159.3,80.9
0.067524,653.1,166.2,1287.3,125.3,2280.2,295.4,659.9,1275.8,2278.4,159.4,80.9
0.069524,659.2,177.7,1290.2,134.0,2307.4,311.2,666.6,1274.6,2288.9,159.5,80.9
0.071524,664.6,186.6,1292.1,140.0,2331.6,314.1,672.5,1274.2,2299.1,159.6,80.9
0.073524,668.5,191.4,1293.4,144.1,2348.6,309.5,677.6,1274.5,2309.2,159.8,80.9
0.075524,672.0,192.7,1294.8,147.7,2359.2,302.2,682,1275.6,2319,159.9,80.8
0.077524,675.0,190.3,1296.3,149.6,2363.4,297.0,685.6,1277.2,2328.6,160.1,80.8
0.079524,677.4,184.9,1297.2,148.6,2365.1,295.0,688.4,1279.5,2338,160.3,80.7
0.081524,678.8,176.1,1297.3,143.8,2367.2,293.0,690.5,1282.2,2347.1,160.5,80.6
0.083524,679.2,164.2,1296.6,135.3,2369.1,286.7,691.9,1285.4,2355.9,160.7,80.6
0.085524,678.7,151.2,1294.7,125.6,2369.0,275.9,692.6,1288.8,2364.4,160.9,80.5
0.087524,678.3,140.0,1292.7,117.7,2368.4,262.3,692.7,1292.5,2372.7,161.2,80.4
0.089524,678.9,131.2,1292.0,111.6,2372.1,242.5,692.3,1296.4,2380.6,161.4,80.3
0.091524,680.6,126.2,1293.0,107.3,2381.5,216.8,691.4,1300.2,2388.3,161.7,80.2
0.093524,682.6,124.2,1295.6,104.4,2393.1,189.7,690.1,1304,2395.7,161.9,80.1
0.095524,684.1,124.4,1299.3,102.8,2403.4,166.3,688.5,1307.7,2402.7,162.2,80
0.097524,684.8,127.0,1303.8,102.8,2412.2,144.9,686.7,1311.2,2409.4,162.5,79.8
0.099524,684.9,132.1,1308.6,104.4,2419.9,124.0,684.7,1314.4,2415.8,162.8,79.7
0.101524,684.4,137.8,1312.8,105.6,2427.3,102.9,682.7,1317.3,2421.8,163,79.5
0.103524,683.6,141.6,1315.0,103.7,2433.5,84.6,680.6,1319.7,2427.4,163.3,79.3
0.105524,682.6,144.2,1315.0,99.2,2438.8,70.3,678.7,1321.8,2432.7,163.6,79.1
0.107524,682.0,146.8,1314.3,94.8,2444.3,61.4,676.9,1323.5,2437.4,163.9,78.9
0.109524,682.1,150.0,1314.2,93.4,2451.2,58.6,675.3,1324.7,2441.8,164.2,78.7
0.111524,682.3,154.2,1315.2,96.0,2459.2,61.1,674.1,1325.4,2445.6,164.4,78.5
0.113524,682.2,159.0,1317.1,102.2,2465.0,67.9,673.1,1325.8,2448.9,164.7,78.3
0.115524,682.1,165.8,1319.8,112.6,2465.4,80.3,672.5,1325.8,2451.7,164.9,78
0.117524,682.2,173.9,1322.8,125.9,2458.5,97.5,672.3,1325.4,2453.9,165.2,77.8
0.119524,682.5,179.1,1324.8,137.7,2445.8,113.3,672.5,1324.7,2455.5,165.4,77.5
0.121524,682.4,179.2,1324.6,144.2,2431.4,120.7,673.1,1323.8,2456.4,165.6,77.3
0.123524,681.9,175.9,1323.1,147.0,2420.2,121.1,674.1,1322.6,2456.7,165.8,77.1
0.125524,681.8,171.7,1321.3,149.3,2415.2,121.3,675.5,1321.4,2456.3,166,76.9
0.127524,682.2,167.8,1319.9,154.2,2416.1,125.9,677.3,1320,2455.2,166.1,76.7
0.129524,683.1,165.2,1320.2,163.8,2421.0,135.5,679.4,1318.6,2453.5,166.3,76.6
0.131524,684.2,163.3,1322.0,176.2,2426.4,147.3,681.9,1317.2,2451,166.4,76.5
0.133524,685.3,161.9,1323.1,185.4,2429.0,159.9,684.5,1315.9,2447.9,166.5,76.4
0.135524,686.6,161.5,1322.2,186.2,2427.7,173.9,687.3,1314.7,2444.1,166.6,76.4
0.137524,688.3,162.1,1319.9,179.0,2423.5,186.0,690.2,1313.6,2439.7,166.7,76.4
0.139524,690.9,164.5,1317.3,168.3,2418.4,193.6,693.2,1312.6,2434.7,166.7,76.5
0.141524,694.3,169.7,1315.8,160.1,2416.4,195.7,696.1,1311.8,2429.1,166.8,76.5
0.143524,697.7,176.9,1315.4,157.1,2419.1,192.6,698.9,1311.1,2423.1,166.8,76.5
0.145524,700.0,185.1,1316.2,161.3,2423.4,187.0,701.5,1310.5,2416.7,166.8,76.5
0.147524,701.6,193.5,1318.3,174.4,2426.5,184.0,703.8,1310,2409.9,166.8,76.5
0.149524,703.5,201.5,1320.8,193.3,2428.6,185.6,705.8,1309.6,2402.8,166.7,76.5
0.151524,706.0,209.6,1321.5,209.1,2431.2,188.8,707.3,1309.2,2395.5,166.6,76.4
0.153524,708.7,219.1,1319.6,217.7,2434.2,190.5,708.3,1308.6,2388.2,166.5,76.5
0.155524,709.9,225.8,1315.8,219.8,2436.0,192.6,708.8,1308,2380.8,166.4,76.5
0.157524,708.3,226.6,1311.3,221.1,2434.4,201.8,708.6,1307.1,2373.5,166.3,76.5
0.159524,703.9,220.3,1307.1,224.7,2426.8,223.9,707.7,1306,2366.4,166.2,76.5
0.161524,697.9,209.2,1302.9,228.3,2411.7,257.5,706.1,1304.4,2359.6,166,76.5
0.163524,691.4,197.7,1297.9,228.4,2389.3,293.5,703.8,1302.4,2353.2,165.8,76.4
0.165524,684.7,187.0,1290.8,224.7,2354.9,323.4,700.6,1299.9,2347.2,165.6,76.4
0.167524,679.2,178.8,1282.3,219.1,2317.3,323.3,696.7,1296.8,2341.7,165.4,76.4
0.169524,675.4,175.0,1274.2,215.5,2293.8,301.4,692,1292.9,2336.9,165.1,76.4
0.171524,673.0,175.2,1268.4,216.7,2288.0,275.0,686.5,1288.4,2332.7,164.8,76.5
0.173524,670.9,175.9,1264.4,219.4,2293.2,243.8,680.2,1283,2329.2,164.6,76.6
0.175524,667.8,174.6,1260.5,219.2,2300.6,207.2,673.2,1276.9,2326.4,164.2,76.7
0.177524,663.4,170.8,1255.7,214.4,2304.7,173.0,665.5,1269.9,2324.5,163.9,76.8
0.179524,657.3,163.3,1249.5,203.3,2306.4,140.8,657.2,1262.1,2323.3,163.6,76.9
0.181524,650.0,153.5,1242.1,188.0,2307.8,112.0,648.2,1253.4,2322.9,163.2,77
0.183524,642.3,144.0,1234.5,173.5,2310.1,87.2,638.8,1244,2323.3,162.8,77
0.185524,634.5,136.6,1227.4,163.5,2312.7,68.0,629,1233.9,2324.4,162.4,77.1
0.187524,627.0,132.0,1220.9,159.2,2315.1,54.5,618.8,1223.2,2326.2,162,77.1
0.189524,620.0,130.4,1214.9,161.1,2317.7,46.5,608.4,1211.8,2328.7,161.5,77.1
0.191524,612.8,130.9,1208.9,168.4,2321.3,42.8,597.8,1200,2331.8,161.1,77.1
0.193524,605.8,132.8,1203.1,178.8,2325.3,43.3,587.2,1187.9,2335.4,160.6,77
0.195524,598.1,134.7,1197.0,190.0,2329.8,48.1,576.6,1175.6,2339.4,160.1,76.9
0.197524,589.3,135.8,1189.9,200.6,2336.2,55.0,566.2,1163.1,2343.7,159.6,76.8
0.199524,579.6,138.3,1180.8,212.4,2346.9,58.2,556,1150.8,2348.3,159.1,76.7
0.201524,569.8,143.8,1170.1,227.2,2359.1,53.3,546.3,1138.7,2353,158.6,76.6
0.203524,558.5,151.1,1156.7,242.8,2368.0,43.5,536.9,1127,2357.7,158.1,76.6
0.205524,545.6,155.9,1141.3,252.9,2371.9,35.3,528.2,1115.9,2362.4,157.6,76.5
0.207524,531.6,157.8,1125.5,260.5,2374.3,30.4,520.1,1105.4,2366.8,157.1,76.5
0.209524,518.2,159.2,1111.0,272.1,2377.3,28.6,512.7,1095.8,2371.1,156.6,76.5
0.211524,505.9,161.7,1097.5,292.0,2380.2,29.5,506.2,1087.1,2374.9,156.1,76.5
0.213524,494.5,164.9,1083.1,319.2,2381.4,33.4,500.5,1079.6,2378.3,155.6,76.5
0.215524,484.5,165.8,1067.0,342.5,2381.0,39.3,495.8,1073.3,2381.2,155.1,76.6
0.217524,474.0,161.3,1048.8,351.7,2382.2,44.3,492.1,1068.3,2383.5,154.7,76.6
0.219524,463.3,152.6,1032.5,347.0,2388.8,43.0,489.4,1064.6,2385.2,154.2,76.7
0.221524,454.5,143.5,1021.2,337.9,2399.5,35.7,487.8,1062.4,2386.2,153.8,76.8
0.223524,448.9,136.6,1014.6,330.6,2408.0,28.8,487.2,1061.7,2386.6,153.4,76.9
