time,f1,b1,f2,b2,f3,b3,f1p,f2p,f3p,f0,intensity
0.025036,276.0,319.4,2039.2,283.1,2444.0,1197.9,306.5,2050,2372,182.4,66.7
0.027036,299.5,135.7,2089.7,248.1,2397.2,508.1,309.3,2043.9,2366.7,182.2,68.5
0.029036,313.4,85.6,2102.8,275.2,2342.4,374.4,313.7,2034,2358.1,181.9,70
0.031036,326.0,66.9,2055.9,314.3,2327.0,220.0,319.5,2021.1,2346.7,181.6,71.2
0.033036,337.0,56.3,1980.8,270.9,2324.0,145.1,326.6,2005.8,2333,181.4,72.3
0.035036,346.8,52.1,1930.9,181.2,2308.3,124.3,334.7,1988.9,2317.9,181.1,73.1
0.037036,354.8,55.1,1911.8,130.3,2274.9,121.2,343.3,1971.4,2301.9,180.8,73.8
0.039036,362.8,65.0,1905.4,103.0,2246.9,111.3,352.2,1954.2,2286,180.5,74.5
0.041036,370.2,79.3,1908.9,85.4,2238.1,105.0,361,1938.2,2270.9,180.2,75.1
0.043036,376.5,95.0,1916.1,71.3,2238.4,104.8,369.5,1924.1,2257.1,180,75.6
0.045036,381.0,111.9,1922.3,58.4,2242.2,109.6,377.5,1912.4,2245.5,179.7,76
0.047036,383.3,131.6,1924.2,48.8,2245.8,118.8,384.6,1903.5,2236.3,179.4,76.3
0.049036,384.6,160.3,1922.6,42.0,2248.0,131.6,391,1897.7,2229.9,179.1,76.5
0.051036,386.8,197.1,1919.3,38.5,2248.7,143.1,396.4,1894.7,2226.4,178.9,76.6
0.053036,390.9,236.5,1915.4,36.7,2248.2,151.5,401,1894.5,2225.9,178.6,76.6
0.055036,395.0,258.2,1912.0,35.6,2245.5,157.0,404.7,1896.5,2228.1,178.4,76.5
0.057036,397.8,258.5,1909.6,34.7,2239.9,164.0,407.7,1900.2,2232.7,178.1,76.4
0.059036,400.5,251.5,1908.6,35.7,2233.8,178.0,410.2,1905,2239.3,177.9,76.3
0.061036,406.5,257.9,1909.5,39.1,2238.7,188.3,412.2,1910.2,2247.4,177.7,76.2
0.063036,417.7,279.1,1911.8,42.7,2259.2,176.3,413.9,1915.3,2256.4,177.4,76.2
0.065036,427.8,290.6,1913.7,42.4,2276.1,155.1,415.5,1919.6,2265.8,177.2,76.2
0.067036,432.0,279.7,1914.2,38.5,2285.0,140.8,417,1922.9,2275.1,177,76.3
0.069036,429.3,254.0,1913.7,33.8,2288.5,137.6,418.5,1924.8,2283.7,176.7,76.3
0.071036,422.7,236.6,1912.9,32.3,2287.3,146.5,419.9,1925.2,2291.3,176.5,76.3
0.073036,417.7,241.0,1912.6,36.5,2283.3,155.5,421.3,1924.3,2297.6,176.2,76.2
0.075036,418.8,253.9,1913.3,42.9,2283.1,148.3,422.6,1922.2,2302.3,176,76.2
0.077036,423.4,254.8,1915.2,44.8,2287.7,138.1,423.6,1919.4,2305.4,175.7,76.2
0.079036,427.3,244.2,1917.0,41.8,2294.6,135.9,424.1,1916.4,2306.9,175.3,76.2
0.081036,428.5,232.0,1917.9,38.2,2303.3,144.2,424.1,1913.5,2306.9,175,76.1
0.083036,426.1,227.0,1917.4,37.5,2312.8,161.9,423.3,1911.4,2305.5,174.7,76
0.085036,420.8,234.2,1916.2,41.2,2315.0,173.4,421.7,1910.6,2303.1,174.3,75.9
0.087036,413.5,248.1,1916.2,48.1,2305.8,166.1,419.2,1911.3,2299.8,173.8,75.8
0.089036,406.8,258.0,1919.2,52.5,2295.7,149.7,415.6,1913.9,2295.9,173.4,75.8
0.091036,401.6,262.2,1925.2,52.9,2289.9,132.8,411,1918.5,2291.7,172.9,75.9
0.093036,398.4,261.6,1931.6,51.9,2286.9,119.7,405.5,1925,2287.4,172.4,75.9
0.095036,396.3,257.5,1937.2,52.1,2283.6,110.4,399.2,1933.2,2283.2,171.9,75.9
0.097036,393.5,253.2,1942.5,55.0,2279.1,104.2,392.1,1942.8,2279.2,171.3,75.7
0.099036,388.2,252.4,1948.7,61.7,2274.5,100.7,384.6,1953.3,2275.6,170.7,75.3
0.101036,380.3,251.9,1958.9,71.7,2271.6,100.5,376.8,1964,2272.3,170.1,74.8
0.103036,372.7,240.7,1972.2,77.5,2272.0,106.0,369,1974.5,2269.5,169.4,74.2
0.105036,366.3,215.9,1984.1,74.6,2275.8,119.6,361.3,1984.2,2266.9,168.8,73.5
0.107036,360.8,188.8,1992.1,66.3,2283.9,142.4,354.1,1992.6,2264.6,168.1,72.7
0.109036,356.4,169.5,1997.3,60.0,2293.6,165.4,347.5,1999.1,2262.6,167.4,71.9
0.111036,350.4,153.3,2001.9,61.0,2295.8,180.6,341.6,2003.7,2260.6,166.7,71
0.113036,341.6,138.6,2005.8,76.5,2277.7,182.5,336.5,2006.1,2258.8,166.1,70
0.115036,331.4,124.8,2008.3,120.7,2239.0,159.2,332.3,2006.4,2257,165.4,68.9
0.117036,323.3,116.4,2003.8,192.7,2208.5,113.4,329,2004.7,2255.1,164.7,67.7
0.119036,316.4,113.1,1993.6,264.7,2197.4,77.1,326.5,2001.5,2253.4,164,66.4
0.121036,309.6,112.2,1986.6,308.5,2197.0,60.6,324.7,1997.1,2251.6,163.4,65
0.123036,305.6,113.6,1988.3,298.4,2204.0,60.9,323.5,1992.2,2250,162.8,63.5
0.125036,306.5,119.9,1993.5,246.1,2220.1,73.2,322.8,1987.1,2248.5,162.2,61.9
0.127036,312.8,131.4,1993.6,191.7,2243.5,87.1,322.4,1982.5,2247.3,161.7,60.2
0.129036,323.6,148.8,1987.8,148.2,2272.2,95.6,322.3,1978.9,2246.4,161.1,58.3
0.131036,337.3,175.0,1978.1,120.6,2298.0,95.9,322.2,1976.5,2245.8,160.7,56.4
0.133036,354.3,214.1,1969.3,105.3,2317.0,94.8,322.2,1975.7,2245.6,160.2,54.4
