time,f1,b1,f2,b2,f3,b3,f1p,f2p,f3p,f0,intensity
0.025578,256.0,43.3,2194.3,224.5,2386.4,332.5,262.2,2199.8,2397.4,106.9,66.6
0.027578,260.2,39.2,2190.8,149.7,2393.3,241.8,264,2195.6,2396.2,106.6,68.5
0.029578,266.4,39.7,2177.9,108.9,2387.6,155.6,266.9,2188.8,2394.5,106.2,70
0.031578,272.4,40.8,2170.3,86.4,2382.7,114.1,270.9,2179.9,2392.2,105.9,71.1
0.033578,277.5,42.5,2164.1,81.5,2381.3,102.4,275.8,2169.4,2389.7,105.4,72
0.035578,283.5,45.4,2154.8,94.6,2385.0,112.6,281.4,2157.8,2387.2,105,72.6
0.037578,291.6,46.5,2148.3,116.2,2394.5,137.0,287.7,2145.8,2384.8,104.5,73
0.039578,300.1,43.8,2147.4,124.3,2403.7,149.8,294.5,2134.1,2382.9,103.9,73.4
0.041578,306.8,39.9,2143.0,117.4,2404.8,140.3,301.5,2123,2381.6,103.4,73.6
0.043578,311.6,38.3,2132.7,111.5,2398.5,129.2,308.6,2113.2,2381.1,102.7,73.8
0.045578,315.5,41.3,2115.8,115.1,2388.3,127.2,315.7,2105.1,2381.5,102,73.8
0.047578,319.1,48.9,2100.5,114.0,2380.2,120.9,322.5,2098.7,2382.8,101.3,73.9
0.049578,323.4,54.8,2094.2,101.4,2378.7,106.5,329.1,2094.2,2384.9,100.6,73.8
0.051578,329.1,54.0,2093.8,85.4,2381.3,91.0,335.2,2091.5,2387.8,99.8,73.6
0.053578,336.5,50.2,2093.8,72.8,2385.0,78.5,340.9,2090.3,2391.2,99,73.5
0.055578,345.3,46.7,2090.6,68.3,2389.1,74.1,346.1,2090.5,2395,98.1,73.3
0.057578,352.0,44.0,2084.0,77.5,2393.3,86.1,350.6,2091.4,2398.9,97.2,73.1
0.059578,355.0,40.3,2079.8,88.5,2396.5,101.4,354.7,2092.8,2402.7,96.4,72.9
0.061578,358.3,36.2,2080.3,86.0,2398.9,100.1,358.2,2094.1,2406,95.5,72.7
0.063578,363.3,32.7,2082.6,76.8,2402.2,89.7,361.2,2095,2408.7,94.6,72.5
0.065578,369.0,31.8,2084.6,75.7,2407.4,88.5,363.7,2095.2,2410.6,93.7,72.1
0.067578,372.3,38.4,2086.5,91.9,2412.4,103.8,365.9,2094.5,2411.7,92.8,71.8
0.069578,368.9,53.0,2087.4,108.3,2411.1,114.0,367.6,2092.7,2411.8,91.9,71.4
0.071578,364.5,60.8,2086.6,107.5,2408.5,110.2,369.1,2089.9,2411,91,71.1
0.073578,365.6,57.5,2086.0,96.5,2408.0,98.6,370.3,2086.3,2409.4,90.2,70.8
0.075578,371.7,49.5,2086.3,84.3,2409.8,84.7,371.2,2082.2,2407.3,89.4,70.6
0.077578,376.9,43.7,2086.3,79.6,2412.2,76.3,371.8,2078,2404.7,88.6,70.5
0.079578,373.7,44.4,2084.8,93.1,2411.8,85.0,372.2,2074.1,2402,87.9,70.5
0.081578,365.8,47.2,2083.7,108.5,2407.2,100.1,372.4,2070.8,2399.5,87.2,70.7
0.083578,363.5,46.0,2084.3,102.6,2405.7,98.8,372.3,2068.7,2397.3,86.5,70.8
0.085578,367.0,42.0,2085.4,90.1,2407.9,90.6,371.9,2067.9,2395.7,85.9,70.9
0.087578,374.1,37.2,2085.7,79.3,2411.5,82.8,371.3,2068.8,2394.8,85.4,70.9
0.089578,381.3,34.3,2083.2,79.1,2412.6,85.5,370.3,2071.4,2394.9,84.9,70.8
0.091578,380.0,36.8,2076.2,104.2,2400.6,116.6,368.9,2075.6,2395.8,84.4,70.7
0.093578,367.8,44.4,2068.8,147.2,2369.8,144.6,367.2,2081.1,2397.5,84,70.7
0.095578,357.5,49.0,2072.2,154.9,2360.8,138.1,365.1,2087.7,2399.9,83.7,70.7
0.097578,354.4,48.8,2081.1,134.8,2370.5,125.1,362.7,2094.8,2402.8,83.4,70.7
0.099578,356.5,46.2,2089.1,109.5,2385.9,108.2,359.9,2101.8,2405.9,83.2,70.6
0.101578,361.2,43.7,2094.3,89.0,2403.4,91.4,356.7,2108,2409,83,70.5
0.103578,362.0,45.9,2096.8,76.3,2422.3,80.3,353.3,2112.8,2411.6,82.9,70.4
0.105578,353.5,53.9,2098.9,69.5,2434.5,74.2,349.6,2115.6,2413.7,82.8,70.4
0.107578,341.9,59.2,2101.7,64.9,2433.3,67.9,345.8,2115.8,2414.8,82.7,70.4
0.109578,334.3,58.6,2104.1,60.5,2427.6,60.1,341.8,2113.2,2414.7,82.7,70.4
0.111578,330.9,54.6,2105.8,56.0,2421.6,51.2,337.8,2107.5,2413.5,82.8,70.4
0.113578,331.2,49.5,2106.4,52.7,2416.6,42.7,333.8,2098.7,2410.9,82.9,70.2
0.115578,333.2,46.6,2103.7,54.5,2412.5,37.6,329.8,2087,2407.1,83,70
0.117578,332.0,49.0,2090.8,70.1,2406.2,40.8,326,2072.9,2402.2,83.1,69.9
0.119578,326.1,50.5,2069.5,102.2,2394.4,57.3,322.4,2056.9,2396.5,83.3,69.9
0.121578,320.4,48.4,2060.0,126.8,2381.3,72.4,319.1,2039.8,2390.2,83.5,70.1
0.123578,316.8,46.7,2060.8,130.2,2375.1,70.4,316.2,2022.5,2383.6,83.7,70.2
0.125578,314.4,47.7,2059.4,123.9,2372.0,59.7,313.6,2005.8,2377.2,83.9,70.3
0.127578,312.1,54.7,2040.7,125.7,2367.2,50.3,311.4,1990.6,2371.3,84.2,70.4
0.129578,309.2,66.8,1987.6,138.1,2361.0,46.2,309.6,1977.8,2366.4,84.4,70.6
0.131578,307.4,76.5,1925.4,128.8,2358.8,52.1,308.4,1968.2,2362.6,84.7,70.9
0.133578,306.6,78.5,1902.4,113.5,2361.8,76.0,307.6,1962.1,2360.2,85,71.2
0.135578,304.5,74.3,1902.0,110.8,2370.0,112.8,307.4,1960.1,2359.4,85.2,71.5
