time,f1,b1,f2,b2,f3,b3,f1p,f2p,f3p,f0,intensity
0.025984,283.0,85.6,1416.4,106.9,2454.9,140.7,327.5,1402,2372,119.2,78.1
0.027984,300.8,113.4,1407.0,98.2,2175.4,3723.2,332.6,1400.6,2370.7,118.8,77.6
0.029984,317.0,134.0,1397.0,87.2,2225.2,3525.8,341,1398.3,2368.7,118.3,76.9
0.031984,331.9,154.1,1387.8,76.6,2458.3,110.7,352.3,1395.2,2366,117.9,76.1
0.033984,351.4,186.1,1381.4,70.7,2443.6,124.2,366.1,1391.5,2362.9,117.4,75.2
0.035984,382.1,224.9,1378.6,69.5,2422.6,136.3,381.9,1387.3,2359.6,117,74.3
0.037984,417.2,238.3,1377.0,67.2,2403.6,140.4,399.2,1382.9,2356.2,116.5,73.5
0.039984,445.8,225.0,1374.9,62.9,2389.1,139.2,417.4,1378.4,2353.1,116,72.8
0.041984,471.9,204.5,1373.3,59.7,2374.4,140.1,435.9,1374.1,2350.3,115.5,72.3
0.043984,499.8,181.2,1373.0,58.0,2356.1,144.1,454.1,1370,2348,115,71.8
0.045984,523.3,152.8,1372.2,55.7,2340.8,144.5,471.4,1366.4,2346.3,114.5,71.5
0.047984,537.9,126.2,1369.6,52.8,2333.2,141.3,487.4,1363.3,2345.3,114,71.2
0.049984,543.7,111.2,1366.1,52.1,2329.0,139.0,501.6,1360.8,2344.8,113.4,71.1
0.051984,539.8,114.8,1362.7,57.9,2321.4,142.5,513.7,1359,2344.9,112.9,71.1
0.053984,527.7,133.4,1359.4,69.7,2309.1,149.8,523.6,1357.8,2345.3,112.5,71.2
0.055984,514.4,153.9,1356.4,80.0,2303.6,150.7,530.9,1357.2,2345.8,112,71.4
0.057984,503.7,174.3,1354.8,86.4,2311.9,147.8,535.9,1357.1,2346.1,111.5,71.7
0.059984,493.1,206.4,1355.9,92.5,2330.2,146.5,538.5,1357.4,2346,111,72
0.061984,484.8,253.9,1359.9,95.4,2349.4,143.3,539,1358,2345.2,110.6,72.3
0.063984,483.1,292.6,1362.7,90.9,2359.5,133.9,537.7,1358.7,2343.5,110.1,72.5
0.065984,486.8,301.4,1361.2,83.7,2362.0,124.9,534.8,1359.4,2340.6,109.7,72.5
0.067984,495.5,289.7,1357.8,80.1,2362.2,125.2,530.8,1359.9,2336.4,109.3,72.4
0.069984,508.9,274.0,1355.6,82.7,2358.9,139.4,526.1,1360.3,2330.9,108.9,72.2
0.071984,522.6,254.7,1355.6,87.7,2349.4,159.5,521.1,1360.3,2323.9,108.5,71.9
0.073984,531.9,224.6,1355.7,88.3,2338.9,167.4,516.2,1360.1,2315.6,108.1,71.6
0.075984,536.3,189.1,1355.0,86.6,2329.6,164.2,511.7,1359.5,2306.2,107.8,71.3
0.077984,536.4,160.5,1354.7,90.6,2311.2,165.9,507.9,1358.7,2296,107.4,71.1
0.079984,532.9,147.9,1355.0,102.3,2275.1,177.7,505.2,1357.6,2285.3,107.1,71
0.081984,528.7,146.1,1354.8,109.9,2234.8,180.8,503.5,1356.5,2274.4,106.8,70.9
0.083984,527.4,142.4,1353.8,106.8,2211.7,170.0,503.1,1355.5,2263.7,106.5,70.9
0.085984,528.2,137.9,1353.7,100.8,2210.1,153.6,503.9,1354.7,2253.8,106.1,71
0.087984,528.3,143.8,1356.6,98.5,2224.6,129.6,505.9,1354.2,2245,105.9,71
0.089984,525.9,163.6,1362.4,99.2,2240.3,102.3,508.7,1354.3,2237.6,105.6,71.1
0.091984,522.9,178.8,1366.7,95.8,2247.3,83.1,512.3,1355,2232,105.3,71.1
0.093984,522.5,174.9,1368.1,87.4,2248.7,72.2,516.4,1356.5,2228.4,105,71
0.095984,523.5,162.3,1368.9,80.4,2248.8,68.5,520.6,1358.9,2226.7,104.8,70.9
0.097984,520.5,153.7,1369.6,83.6,2250.7,79.9,524.5,1362.2,2227.1,104.5,70.8
0.099984,511.4,148.8,1367.7,99.0,2225.9,1960.8,527.9,1366.3,2229.4,104.3,70.6
0.101984,504.5,140.5,1363.8,108.9,2223.8,1406.9,530.4,1371.2,2233.4,104.1,70.4
0.103984,504.6,131.3,1364.9,104.9,2261.3,171.3,531.6,1376.9,2238.6,103.9,70.3
0.105984,507.0,129.0,1371.6,97.5,2256.4,148.0,531.4,1383.1,2244.7,103.7,70.1
0.107984,505.6,142.0,1381.9,95.7,2258.0,122.2,529.5,1389.8,2251.1,103.5,70
0.109984,499.9,171.2,1394.1,99.4,2262.1,106.1,525.7,1396.6,2257.4,103.3,69.9
0.111984,495.3,193.8,1403.0,99.6,2262.7,94.1,520,1403.5,2263,103.1,69.9
0.113984,493.5,193.0,1406.6,93.5,2259.2,82.7,512.3,1410.1,2267.4,102.9,69.8
0.115984,493.0,182.2,1409.5,86.9,2253.3,72.3,502.7,1416.3,2270.1,102.8,69.8
0.117984,490.8,179.9,1416.9,86.3,2246.7,64.0,491.3,1422,2270.8,102.6,69.7
0.119984,485.1,187.1,1428.0,89.3,2242.7,58.1,478.3,1426.9,2269.2,102.5,69.7
0.121984,478.9,186.3,1435.7,87.6,2242.0,54.0,464,1431,2265.2,102.4,69.8
0.123984,474.8,173.8,1438.6,81.6,2243.6,51.8,448.6,1434.1,2258.8,102.2,69.8
0.125984,469.4,161.4,1439.4,76.4,2246.9,52.8,432.5,1436.4,2250.2,102.1,69.8
0.127984,455.6,160.0,1440.4,76.4,2250.6,59.5,416,1437.7,2239.6,102,69.9
0.129984,432.4,165.8,1442.7,81.6,2250.3,71.3,399.6,1438.2,2227.4,102,70
0.131984,410.5,165.1,1445.7,86.4,2244.2,80.7,383.6,1438,2214.1,101.9,70
0.133984,395.0,156.6,1448.1,89.0,2236.8,86.4,368.4,1437.2,2200.4,101.8,70
0.135984,379.2,144.8,1448.9,92.8,2226.5,95.1,354.4,1436.1,2186.7,101.8,70
0.137984,353.0,129.6,1446.5,103.6,2204.2,110.3,342,1434.7,2173.9,101.7,70.1
0.139984,318.6,105.4,1437.8,126.2,2162.7,122.8,331.3,1433.3,2162.3,101.7,70.3
0.141984,293.3,80.3,1422.8,158.8,2120.9,120.0,322.7,1432,2152.8,101.6,70.6
0.143984,280.7,65.8,1411.9,194.9,2103.5,121.5,316.5,1431,2145.5,101.6,70.9
0.145984,278.0,60.7,1415.3,230.5,2110.6,159.8,312.6,1430.4,2141.1,101.6,71.3
0.147984,283.9,59.7,1429.3,251.6,2146.4,291.7,311.3,1430.1,2139.6,101.6,71.7
