time,f1,b1,f2,b2,f3,b3,f1p,f2p,f3p,f0,intensity
0.025916,769.4,282.9,1290.3,143.4,2507.0,211.3,785.7,1306.4,2392.9,110,70.6
0.027916,771.7,266.4,1294.6,130.4,2498.0,193.9,785.1,1307.9,2394.6,110.8,71.6
0.029916,777.8,254.2,1305.4,122.7,2455.9,179.0,784.2,1310.4,2397.5,111.6,72.3
0.031916,785.1,249.6,1321.1,118.8,2399.2,157.4,783,1313.9,2401.3,112.5,72.9
0.033916,787.2,246.7,1332.9,112.6,2367.4,134.9,781.3,1318.4,2405.9,113.4,73.4
0.035916,782.1,244.3,1335.6,106.7,2364.7,123.1,779.3,1323.8,2411.2,114.3,73.9
0.037916,776.4,237.0,1334.6,100.5,2372.9,116.2,776.8,1330.1,2416.9,115.3,74.3
0.039916,772.4,230.5,1334.7,96.5,2385.6,112.7,774,1337.3,2422.8,116.3,74.7
0.041916,769.2,230.5,1339.7,97.0,2399.0,110.4,770.7,1345.2,2428.7,117.4,75.1
0.043916,766.5,232.3,1349.9,97.8,2407.9,102.7,767,1353.9,2434.2,118.5,75.4
0.045916,765.9,232.5,1360.2,96.5,2412.0,91.0,762.9,1363.4,2439.2,119.6,75.7
0.047916,768.9,228.4,1369.7,94.5,2413.6,83.1,758.3,1373.4,2443.3,120.7,76
0.049916,772.3,218.8,1382.5,91.7,2412.9,81.2,753.1,1384.1,2446.4,121.8,76.3
0.051916,770.4,209.6,1397.8,86.1,2411.7,80.1,747.5,1395.3,2448.3,123,76.6
0.053916,761.7,206.2,1411.8,78.3,2412.1,76.8,741.3,1407.1,2448.7,124.2,76.9
0.055916,746.5,214.4,1423.2,74.1,2414.5,76.1,734.6,1419.2,2447.5,125.3,77.1
0.057916,724.2,227.7,1435.3,73.6,2417.5,82.8,727.3,1431.8,2444.6,126.5,77.4
0.059916,704.5,226.9,1447.4,71.6,2420.2,94.6,719.5,1444.7,2439.9,127.7,77.7
0.061916,695.1,213.1,1459.3,67.6,2423.5,105.9,711,1457.8,2433.4,128.9,78
0.063916,691.6,202.4,1472.3,66.9,2427.1,116.6,702,1471.3,2425.2,130.1,78.2
0.065916,685.1,199.5,1488.4,72.9,2430.8,129.9,692.3,1485,2415.3,131.3,78.4
0.067916,676.6,196.9,1506.4,81.8,2434.9,136.1,682.1,1498.9,2403.7,132.5,78.6
0.069916,670.8,193.5,1521.8,87.8,2437.8,129.6,671.3,1513,2390.8,133.7,78.7
0.071916,664.7,197.9,1535.9,93.8,2437.9,122.9,660,1527.3,2376.6,134.9,78.8
0.073916,653.1,212.2,1550.4,103.1,2434.9,130.8,648.1,1541.7,2361.3,136,78.8
0.075916,636.5,221.3,1562.9,111.1,2431.5,158.9,635.7,1556.2,2345.3,137.2,78.8
0.077916,619.2,217.3,1571.1,115.4,2433.2,209.4,622.9,1570.9,2328.7,138.4,78.7
0.079916,600.4,210.2,1578.8,121.8,2360.5,1265.5,609.6,1585.8,2312,139.6,78.6
0.081916,578.1,203.9,1590.8,132.4,2295.8,881.3,596,1600.8,2295.2,140.8,78.5
0.083916,560.1,195.8,1606.3,137.2,2243.9,628.0,582.2,1616,2278.8,141.9,78.3
0.085916,548.9,185.4,1621.7,132.2,2213.5,494.5,568.1,1631.3,2263,143.1,78.3
0.087916,540.5,174.8,1635.4,125.0,2194.2,405.0,553.9,1646.8,2248,144.2,78.2
0.089916,534.4,165.3,1648.0,121.1,2179.1,342.5,539.6,1662.5,2234.1,145.4,78.3
0.091916,530.5,154.7,1662.0,122.7,2168.1,303.1,525.4,1678.3,2221.4,146.6,78.4
0.093916,526.7,143.9,1679.1,133.1,2161.5,291.3,511.3,1694.3,2210.3,147.7,78.5
0.095916,522.0,135.7,1699.1,148.6,2159.9,296.9,497.5,1710.5,2200.7,148.9,78.7
0.097916,516.5,132.1,1718.7,163.2,2164.6,306.3,484,1726.8,2192.9,150,78.8
0.099916,507.9,133.2,1738.9,181.6,2172.3,311.2,470.9,1743.3,2186.8,151.1,78.9
0.101916,494.5,138.0,1761.0,205.9,2176.7,306.1,458.2,1759.8,2182.5,152.3,79.1
0.103916,476.2,143.1,1784.6,224.6,2179.6,289.4,446.2,1776.5,2180,153.4,79.2
0.105916,452.1,144.4,1806.4,227.7,2186.2,264.2,434.8,1793.1,2179.3,154.5,79.3
0.107916,423.3,137.2,1825.3,224.2,2193.6,240.3,424.1,1809.7,2180.3,155.6,79.5
0.109916,392.8,118.1,1843.3,218.2,2198.6,219.6,414.2,1826.2,2182.8,156.7,79.8
0.111916,370.6,94.5,1859.6,207.2,2202.3,205.3,405.1,1842.5,2186.8,157.8,80
0.113916,358.6,76.5,1876.2,191.8,2208.3,197.2,396.9,1858.6,2192,158.9,80.1
0.115916,353.1,66.2,1892.6,173.9,2216.4,189.3,389.5,1874.4,2198.4,159.9,80.3
0.117916,351.5,60.8,1906.4,157.3,2223.6,177.5,383,1889.7,2205.8,161,80.4
0.119916,352.7,58.3,1919.3,141.4,2230.2,161.5,377.3,1904.5,2213.9,162,80.4
0.121916,356.8,59.8,1929.9,123.7,2236.7,140.1,372.4,1918.7,2222.6,163,80.4
0.123916,363.8,64.8,1936.0,103.1,2243.5,112.2,368.4,1932.2,2231.7,164,80.3
0.125916,372.3,70.2,1940.2,85.0,2251.4,87.3,365.1,1944.8,2241,164.9,80.1
0.127916,379.0,74.6,1946.7,71.9,2260.7,70.1,362.5,1956.6,2250.5,165.8,80
0.129916,380.6,77.2,1954.7,64.8,2268.8,60.7,360.5,1967.3,2259.8,166.7,79.8
0.131916,378.3,77.1,1962.7,61.9,2274.6,55.9,359.1,1977,2269,167.6,79.7
0.133916,375.4,76.2,1970.4,61.3,2278.7,53.4,358.1,1985.5,2277.9,168.4,79.6
0.135916,374.0,78.6,1977.4,61.1,2282.2,51.6,357.5,1992.7,2286.3,169.2,79.5
0.137916,373.0,83.8,1983.8,61.5,2286.7,50.7,357.3,1998.7,2294.4,169.9,79.5
0.139916,370.1,87.2,1988.5,63.6,2292.3,51.7,357.2,2003.4,2301.9,170.6,79.5
0.141916,365.0,88.0,1990.8,66.9,2298.2,54.2,357.3,2006.8,2308.8,171.3,79.5
0.143916,359.8,88.9,1992.2,69.5,2303.9,56.8,357.5,2008.8,2315.3,171.9,79.5
0.145916,355.8,91.5,1994.1,69.9,2308.5,58.7,357.6,2009.6,2321.1,172.4,79.6
0.147916,352.8,95.9,1996.4,69.0,2312.8,60.4,357.7,2009.1,2326.4,172.9,79.6
0.149916,350.8,100.7,1998.2,67.9,2317.2,62.5,357.7,2007.3,2331.2,173.4,79.7
0.151916,349.0,104.5,1999.5,67.0,2322.2,64.7,357.5,2004.5,2335.5,173.8,79.7
0.153916,347.1,106.0,2000.6,66.1,2328.1,66.2,357.1,2000.6,2339.3,174.2,79.8
0.155916,346.2,104.6,2001.5,64.9,2334.5,65.9,356.6,1995.7,2342.7,174.5,80
0.157916,346.5,100.9,2001.9,63.4,2341.4,64.1,355.8,1990.1,2345.7,174.8,80.1
0.159916,347.6,96.4,2001.2,62.5,2348.1,61.9,354.7,1983.8,2348.4,175,80.3
0.161916,348.5,92.7,1999.0,62.0,2354.7,60.2,353.5,1976.9,2350.8,175.2,80.5
0.163916,348.9,90.2,1995.6,61.1,2360.7,59.0,352.1,1969.7,2352.9,175.4,80.6
0.165916,349.2,88.3,1990.6,58.9,2366.2,57.9,350.6,1962.3,2354.8,175.5,80.8
0.167916,349.5,86.5,1984.2,55.3,2370.6,56.5,349,1954.8,2356.5,175.6,80.9
0.169916,349.5,84.0,1976.4,50.7,2373.7,54.8,347.3,1947.5,2357.9,175.7,81.1
0.171916,349.1,80.0,1967.1,46.3,2375.4,54.0,345.6,1940.4,2359.3,175.8,81.2
0.173916,348.2,74.7,1956.8,43.0,2376.1,54.3,344,1933.7,2360.4,175.8,81.4
0.175916,346.9,68.9,1944.7,41.2,2375.8,55.7,342.5,1927.7,2361.4,175.8,81.5
0.177916,345.2,64.2,1931.1,42.1,2373.5,58.3,341.1,1922.3,2362.2,175.8,81.6
0.179916,343.2,60.9,1916.7,47.5,2368.3,61.6,339.9,1917.7,2362.9,175.7,81.7
0.181916,341.0,58.3,1901.4,60.9,2360.4,65.5,338.9,1914.1,2363.5,175.7,81.8
0.183916,339.1,55.8,1884.5,86.3,2351.4,69.7,338.2,1911.4,2363.9,175.6,81.9
0.185916,337.0,53.3,1863.4,132.1,2343.2,73.5,337.7,1909.8,2364.1,175.6,82
0.187916,335.3,53.2,1843.6,200.4,2339.6,76.0,337.6,1909.2,2364.2,175.5,82.2
