time,f1,b1,f2,b2,f3,b3,f1p,f2p,f3p,f0,intensity
0.025834,327.9,153.4,1025.8,235.2,2232.2,196.1,341.9,1017.7,2237.5,154.5,70.6
0.027834,336.9,150.1,1026.4,188.0,2244.5,175.4,343.8,1017.4,2238.3,154.3,71.8
0.029834,343.8,138.6,1024.2,151.8,2252.7,149.2,347,1016.9,2239.6,154,72.8
0.031834,349.6,120.1,1020.9,129.9,2252.3,119.4,351.2,1016.1,2241.4,153.7,73.7
0.033834,357.3,101.4,1017.5,118.2,2246.7,92.3,356.4,1015.2,2243.7,153.4,74.5
0.035834,367.6,86.0,1012.7,112.0,2241.1,74.3,362.4,1014,2246.4,153.1,75.1
0.037834,376.0,76.9,1006.8,109.6,2239.9,72.6,369,1012.6,2249.6,152.8,75.8
0.039834,383.7,72.5,999.8,114.0,2242.3,84.1,375.9,1011.1,2253.1,152.5,76.3
0.041834,390.8,71.7,994.4,129.7,2247.1,99.5,383,1009.3,2257,152.1,76.9
0.043834,397.3,70.9,992.5,153.4,2255.7,104.3,390,1007.3,2261.3,151.7,77.4
0.045834,402.7,68.2,995.1,176.8,2267.6,87.2,396.7,1005.1,2265.8,151.3,77.8
0.047834,406.9,65.5,1000.8,192.3,2275.5,61.5,403,1002.7,2270.5,150.9,78.2
0.049834,410.6,64.3,1007.6,203.5,2279.6,40.8,408.5,1000.2,2275.5,150.4,78.5
0.051834,413.0,63.7,1009.3,208.6,2281.4,30.4,413.3,997.4,2280.5,149.9,78.8
0.053834,414.5,62.8,1005.4,210.5,2282.7,26.3,417.2,994.5,2285.7,149.5,79
0.055834,415.7,61.8,998.8,212.2,2285.5,25.9,420,991.3,2290.9,148.9,79.2
0.057834,415.9,60.1,989.0,211.7,2291.5,29.8,421.9,988,2296.2,148.4,79.4
0.059834,415.6,57.5,977.8,205.3,2299.9,39.1,422.8,984.5,2301.4,147.8,79.4
0.061834,415.4,55.0,969.2,196.3,2310.1,55.5,422.7,980.7,2306.5,147.2,79.5
0.063834,415.4,54.0,964.5,191.2,2320.7,663.6,421.7,976.7,2311.5,146.6,79.5
0.065834,415.0,55.0,962.1,192.5,2307.8,667.3,419.8,972.4,2316.3,146,79.5
0.067834,414.3,58.7,963.6,202.9,2330.6,757.2,417.3,967.7,2321,145.3,79.4
0.069834,413.2,65.0,969.2,220.1,2336.3,80.7,414.1,962.7,2325.5,144.7,79.4
0.071834,411.9,71.7,972.7,235.6,2336.3,66.6,410.5,957.2,2329.7,144,79.2
0.073834,410.6,77.1,968.8,244.0,2337.1,59.0,406.6,951.3,2333.6,143.3,79.1
0.075834,408.6,80.6,961.0,243.8,2337.6,59.5,402.4,944.8,2337.3,142.6,78.9
0.077834,405.5,84.1,953.4,238.1,2337.6,67.4,398.2,937.8,2340.6,141.8,78.7
0.079834,401.7,87.9,943.9,228.9,2338.6,80.3,393.9,930.2,2343.5,141.1,78.5
0.081834,396.8,91.4,928.5,216.2,2343.1,88.9,389.8,921.9,2346.1,140.3,78.3
0.083834,389.7,94.0,908.9,199.1,2348.9,82.1,385.7,913.1,2348.3,139.6,78.1
0.085834,382.0,95.2,891.0,179.7,2351.2,67.5,381.8,903.6,2350,138.9,77.9
0.087834,375.1,95.5,875.0,159.2,2350.0,55.0,378.1,893.6,2351.2,138.1,77.8
0.089834,369.9,95.8,861.6,142.4,2346.6,49.6,374.6,883.2,2351.9,137.4,77.7
0.091834,366.5,97.5,852.4,133.7,2342.6,51.6,371.2,872.3,2352.1,136.6,77.7
0.093834,364.5,102.1,845.8,130.9,2339.8,57.6,367.9,861.1,2351.8,135.9,77.7
0.095834,363.2,109.6,839.7,130.4,2341.0,64.0,364.7,849.8,2350.8,135.2,77.6
0.097834,360.9,117.8,833.3,130.9,2346.5,66.3,361.4,838.4,2349.2,134.5,77.5
0.099834,357.5,123.8,828.1,132.3,2350.2,62.6,358.1,827.3,2346.9,133.8,77.4
0.101834,353.3,127.5,822.8,131.2,2348.8,54.8,354.7,816.5,2344,133.1,77.2
0.103834,349.1,130.8,815.6,125.2,2344.9,47.5,351.1,806.3,2340.3,132.4,76.9
0.105834,344.5,132.7,806.2,116.1,2340.6,44.6,347.3,796.8,2336,131.8,76.6
0.107834,340.2,128.8,797.4,108.8,2336.2,47.0,343.3,788.3,2330.9,131.2,76.3
0.109834,338.0,122.4,791.5,108.1,2334.2,52.6,339,780.9,2325.2,130.6,76
0.111834,337.0,120.8,786.8,114.8,2334.9,63.4,334.4,774.8,2318.8,130,75.7
0.113834,334.9,126.0,781.7,129.7,2334.8,87.5,329.5,770,2311.8,129.4,75.3
0.115834,329.9,132.1,776.4,149.4,2324.3,130.2,324.4,766.7,2304.2,128.9,75
0.117834,322.7,132.3,772.8,166.7,2294.1,151.8,319.1,764.9,2296.1,128.4,74.7
0.119834,314.4,127.3,771.6,178.0,2267.5,128.4,313.7,764.6,2287.6,127.9,74.5
0.121834,306.3,119.0,771.9,183.9,2250.5,98.4,308.1,765.8,2278.8,127.4,74.3
0.123834,300.5,110.0,772.5,186.4,2241.3,80.4,302.5,768.3,2269.8,127,74.2
0.125834,296.8,105.0,772.9,189.0,2239.7,72.0,296.9,772.1,2260.6,126.5,74
0.127834,292.8,106.1,773.1,190.5,2243.9,66.9,291.4,776.9,2251.5,126.1,73.7
0.129834,287.0,111.1,772.6,181.8,2249.5,63.9,286.1,782.6,2242.6,125.8,73.5
0.131834,280.2,112.0,770.8,159.1,2252.8,68.7,281,788.9,2233.9,125.4,73.2
0.133834,274.4,103.9,768.5,135.5,2249.7,83.0,276.3,795.5,2225.7,125.1,72.9
0.135834,269.5,91.5,767.8,121.5,2233.7,97.3,272,802.1,2218.1,124.8,72.6
0.137834,265.2,79.7,771.5,119.2,2207.9,99.5,268.1,808.6,2211.2,124.5,72.4
0.139834,262.7,71.7,781.4,128.4,2190.6,93.3,264.7,814.5,2205.1,124.2,72.2
0.141834,262.2,70.4,796.4,149.4,2189.2,85.8,261.9,819.8,2200,123.9,72
0.143834,262.0,73.0,815.4,180.3,2195.8,80.5,259.6,824.1,2195.9,123.7,71.7
0.145834,260.6,73.8,838.9,215.4,2202.3,84.7,258,827.3,2193,123.5,71.4
0.147834,258.0,70.5,872.8,256.7,2200.3,101.8,257,829.3,2191.1,123.3,71
0.149834,255.7,65.8,915.7,304.6,2182.5,117.4,256.7,830,2190.5,123.1,70.6
