time,f1,b1,f2,b2,f3,b3,f1p,f2p,f3p,f0,intensity
0.025122,781.1,403.3,1390.6,196.0,2279.3,47.5,823.2,1416.8,2277.7,86.7,69.4
0.027122,814.9,430.2,1409.7,185.1,2273.3,43.0,819.2,1419.7,2276.3,87.2,69.6
0.029122,815.0,397.5,1416.3,165.3,2271.1,35.3,812.7,1424.4,2274.1,87.7,69.7
0.031122,799.5,340.9,1419.5,146.1,2269.9,29.1,804.2,1431,2271.1,88.3,69.8
0.033122,786.5,290.1,1429.8,136.6,2268.5,26.6,794.2,1439.3,2267.4,88.8,69.9
0.035122,785.4,269.0,1461.5,140.0,2265.5,31.1,783.2,1449.3,2263.2,89.4,70
0.037122,786.3,264.0,1497.5,138.1,2260.2,41.8,772,1460.8,2258.7,90,70.2
0.039122,779.3,255.3,1511.2,128.9,2254.9,46.1,761,1473.9,2254,90.6,70.4
0.041122,770.2,233.7,1512.4,116.9,2251.1,42.2,750.8,1488.2,2249.2,91.2,70.6
0.043122,761.8,210.0,1512.3,106.9,2248.2,37.8,742,1503.8,2244.6,91.8,70.8
0.045122,753.0,208.1,1517.9,106.3,2244.6,40.4,734.6,1520.6,2240.3,92.4,70.9
0.047122,743.6,243.5,1533.9,116.6,2237.2,57.1,729,1538.3,2236.4,93,71.1
0.049122,735.2,286.6,1551.4,122.6,2226.6,77.8,725,1556.9,2233,93.6,71.2
0.051122,727.6,301.1,1562.6,119.1,2220.9,80.0,722.5,1576.3,2230.3,94.2,71.4
0.053122,718.7,294.1,1571.2,116.7,2221.5,71.4,721.1,1596.4,2228.2,94.7,71.5
0.055122,706.0,293.6,1585.1,130.8,2225.2,66.4,720.3,1617.2,2226.9,95.3,71.7
0.057122,695.1,312.6,1618.8,173.1,2229.5,69.2,719.5,1638.5,2226.4,95.8,71.9
0.059122,696.3,318.6,1669.8,208.1,2233.0,71.0,718.2,1660.3,2226.6,96.3,72.1
0.061122,697.8,297.9,1703.1,206.4,2234.3,65.3,715.7,1682.4,2227.6,96.8,72.3
0.063122,694.6,268.9,1717.7,193.6,2233.7,57.0,711.5,1704.9,2229.4,97.2,72.5
0.065122,689.4,247.4,1730.4,187.6,2233.4,52.9,705,1727.7,2231.9,97.6,72.7
0.067122,682.8,241.3,1754.4,187.6,2235.4,55.8,696,1750.6,2235.1,98,72.9
0.069122,675.2,244.1,1781.6,180.4,2239.0,59.6,684.2,1773.7,2238.9,98.4,73
0.071122,668.9,242.2,1798.5,166.8,2241.2,56.6,669.7,1796.7,2243.5,98.7,73.1
0.073122,665.0,233.8,1810.6,155.9,2242.8,50.7,652.6,1819.6,2248.6,98.9,73.2
0.075122,660.2,233.1,1829.6,153.6,2247.6,48.4,633.3,1842.2,2254.4,99.2,73.3
0.077122,647.5,259.5,1862.8,157.5,2257.7,53.4,612.3,1864.4,2260.8,99.4,73.3
0.079122,621.6,308.8,1894.2,154.2,2267.7,59.0,590.2,1886,2267.7,99.6,73.4
0.081122,587.3,353.4,1913.7,146.3,2274.2,59.8,567.6,1906.9,2275.1,99.7,73.4
0.083122,552.0,379.3,1931.1,140.1,2281.4,60.4,545.3,1926.8,2282.9,99.8,73.4
0.085122,517.2,389.1,1953.0,134.6,2293.3,65.3,523.9,1945.4,2291.2,99.9,73.4
0.087122,487.9,387.7,1974.1,123.5,2308.2,72.9,504.1,1962.7,2299.7,100,73.4
0.089122,468.8,378.6,1985.9,108.3,2320.0,77.0,486.2,1978.4,2308.4,100,73.3
0.091122,457.7,362.1,1989.8,95.9,2325.3,75.9,470.7,1992.3,2317.1,100,73.2
0.093122,451.4,341.2,1991.0,88.3,2326.7,72.2,457.7,2004.2,2325.7,100,73
0.095122,448.6,318.0,1994.5,87.5,2328.4,71.5,447.2,2013.9,2334.1,100,72.9
0.097122,444.9,297.8,2005.8,95.6,2333.7,81.6,439,2021.4,2342.1,100,72.7
0.099122,433.0,283.8,2022.3,102.7,2342.4,98.1,432.8,2026.5,2349.4,99.9,72.6
0.101122,419.1,271.8,2030.9,97.0,2349.4,100.2,428.1,2029.2,2356,99.9,72.4
0.103122,412.5,265.3,2030.6,85.4,2353.5,89.0,424.4,2029.6,2361.6,99.8,72.3
0.105122,413.0,262.9,2027.1,76.2,2359.5,77.3,420.9,2027.5,2366.3,99.7,72.2
0.107122,412.1,256.4,2022.8,76.4,2370.5,72.2,417.2,2023.3,2369.8,99.7,72.1
0.109122,401.7,244.5,2019.8,83.2,2381.0,70.4,412.8,2017,2372.1,99.6,72
0.111122,391.3,234.8,2018.6,82.9,2385.2,64.7,407,2008.9,2373.3,99.5,71.9
0.113122,387.8,233.7,2016.4,75.2,2385.9,56.1,399.7,1999.3,2373.3,99.5,71.8
0.115122,394.4,240.2,2008.6,68.0,2384.0,48.8,390.7,1988.4,2372.2,99.4,71.6
0.117122,402.9,235.8,1988.6,68.4,2376.4,46.6,380,1976.7,2370.1,99.3,71.5
0.119122,398.2,216.9,1958.2,73.1,2360.7,47.6,367.8,1964.5,2367.3,99.3,71.5
0.121122,386.8,199.2,1936.1,71.9,2346.1,46.0,354.4,1952.1,2363.8,99.2,71.4
0.123122,371.7,190.5,1927.6,68.4,2342.1,43.6,340.4,1940.1,2360,99.2,71.3
0.125122,348.0,185.6,1923.6,71.1,2346.1,45.2,326.4,1928.7,2356.1,99.1,71.3
0.127122,314.9,163.1,1915.3,88.9,2352.9,56.8,313,1918.4,2352.3,99.1,71.3
0.129122,289.8,123.2,1897.7,132.8,2359.0,87.4,300.9,1909.5,2348.8,99.1,71.3
0.131122,276.9,93.3,1878.1,204.4,2360.4,147.7,290.7,1902.2,2345.8,99.1,71.3
0.133122,268.5,76.6,1871.8,289.8,2351.6,239.1,283.1,1896.8,2343.6,99,71.4
0.135122,260.4,68.9,1890.6,375.1,2332.9,354.4,278.3,1893.5,2342.2,99,71.5
0.137122,253.3,67.2,1959.0,396.3,2340.1,552.5,276.6,1892.4,2341.7,99,71.8
