time,f1,b1,f2,b2,f3,b3,f1p,f2p,f3p,f0,intensity
0.025311,422.2,343.8,554.3,735.4,2365.0,126.6,371.3,723.9,2374.5,158.5,74.8
0.027311,356.9,236.8,724.2,430.8,2376.8,94.0,373.6,744.4,2377,158.5,76.5
0.029311,355.4,178.8,777.8,358.6,2381.9,83.5,377.4,777.5,2381.1,158.4,77.8
0.031311,365.4,148.0,824.9,366.7,2388.6,77.9,382.5,821.6,2386.5,158.4,78.9
0.033311,380.8,128.8,896.9,432.7,2399.9,73.2,388.9,874.6,2392.9,158.3,79.7
0.035311,395.8,113.6,1002.7,495.3,2412.0,64.9,396.2,934.2,2400.1,158.3,80.4
0.037311,407.5,100.4,1103.0,484.4,2420.9,54.4,404.2,997.7,2407.7,158.3,80.9
0.039311,415.7,90.8,1151.8,438.8,2425.6,46.6,412.8,1062.3,2415.1,158.3,81.3
0.041311,422.8,83.4,1170.6,400.8,2427.8,42.6,421.7,1125.6,2422,158.3,81.7
0.043311,431.2,77.0,1188.7,374.4,2428.6,42.7,430.7,1185.1,2427.8,158.3,82
0.045311,440.5,73.1,1220.2,365.4,2427.3,48.5,439.5,1238.8,2432.2,158.3,82.3
0.047311,450.3,72.0,1261.6,369.3,2422.5,61.7,448,1285.2,2434.6,158.3,82.5
0.049311,460.4,72.5,1303.4,381.1,2412.9,82.3,456,1323.1,2434.7,158.2,82.7
0.051311,468.4,73.6,1332.2,398.8,2403.5,97.7,463.4,1352.1,2432.2,158.2,82.9
0.053311,473.6,73.8,1344.1,424.4,2398.5,101.7,470.2,1372.2,2427,158.1,83
0.055311,477.4,72.8,1343.7,458.4,2394.7,101.6,476.3,1383.7,2418.9,158.1,83.1
0.057311,480.6,71.6,1338.0,487.5,2390.5,101.5,481.7,1387.4,2407.9,158,83.1
0.059311,483.3,70.0,1332.5,503.1,2387.4,101.1,486.3,1384.6,2394.3,157.8,83.1
0.061311,485.7,67.1,1332.2,504.3,2386.7,99.1,490.4,1376.5,2378.4,157.6,83.2
0.063311,489.0,64.2,1345.1,496.9,2387.1,94.8,493.9,1364.4,2360.6,157.4,83.2
0.065311,493.2,62.9,1370.4,495.8,2385.5,93.0,496.9,1349.7,2341.5,157,83.3
0.067311,497.2,62.6,1393.3,517.3,2381.1,101.9,499.6,1333.4,2321.6,156.7,83.4
0.069311,500.4,63.6,1397.7,569.4,2373.6,128.6,501.9,1316.8,2301.8,156.2,83.6
0.071311,503.5,67.4,1377.2,630.9,2358.3,176.9,504,1300.3,2282.7,155.7,83.8
0.073311,507.0,74.1,1340.1,675.8,2322.4,254.2,506,1284.6,2265.1,155.1,84
0.075311,510.2,82.9,1288.0,684.7,2233.4,332.8,507.9,1269.9,2249.6,154.4,84.2
0.077311,512.6,92.8,1234.0,651.5,2144.3,299.9,509.8,1256.1,2236.9,153.6,84.3
0.079311,514.5,104.8,1191.9,602.2,2104.1,254.3,511.7,1243.2,2227.4,152.8,84.3
0.081311,516.8,120.3,1168.5,552.8,2097.7,225.1,513.5,1231,2221.3,151.8,84.3
0.083311,519.7,137.3,1170.6,522.2,2125.3,213.2,515.4,1219.1,2218.9,150.8,84.1
0.085311,522.6,151.6,1192.3,511.1,2185.3,198.2,517.2,1207.3,2220,149.7,83.8
0.087311,523.2,157.3,1220.1,482.9,2257.2,133.9,519,1195.7,2224.4,148.5,83.4
0.089311,519.7,147.7,1220.8,404.1,2297.6,65.5,520.8,1184.3,2231.8,147.2,82.9
0.091311,515.5,130.2,1184.9,293.4,2314.4,31.2,522.6,1173.4,2241.4,145.8,82.3
0.093311,515.1,115.0,1142.1,175.8,2320.1,16.3,524.2,1163.4,2252.7,0,81.6
0.095311,520.2,113.1,1126.3,104.5,2319.5,11.3,525.7,1155,2264.9,0,80.9
0.097311,526.4,125.7,1131.0,75.0,2315.9,10.9,527.2,1148.9,2277.1,0,80.3
0.099311,530.3,138.8,1143.8,59.7,2311.5,12.9,528.5,1145.9,2288.5,0,80
0.101311,531.9,136.4,1158.6,49.4,2307.8,17.1,529.7,1146.7,2298.4,0,79.8
0.103311,532.8,120.3,1172.6,42.3,2305.4,23.5,530.8,1152.2,2306.2,0,79.8
0.105311,532.6,102.8,1184.5,39.0,2301.2,30.3,531.8,1162.6,2311.4,0,79.9
0.107311,531.2,91.5,1196.9,40.8,2290.0,32.8,532.7,1178.3,2313.7,0,79.9
0.109311,529.9,88.6,1212.2,49.2,2278.0,28.4,533.5,1199.1,2313,0,79.8
0.111311,530.4,88.0,1231.2,61.0,2271.6,23.0,534.2,1224.7,2309.3,0,79.6
0.113311,533.1,84.0,1254.8,69.7,2267.5,18.3,534.9,1254.3,2303.1,0,79.3
0.115311,537.9,78.4,1280.8,72.7,2263.0,15.0,535.6,1286.9,2294.7,0,78.8
0.117311,543.1,75.3,1308.9,77.4,2257.7,13.7,536.1,1321,2284.7,0,78.3
0.119311,545.9,72.3,1341.0,86.8,2253.0,13.8,536.7,1355.2,2273.9,124.4,77.8
0.121311,545.5,66.6,1370.5,95.4,2251.4,14.1,537.1,1387.8,2263.1,123.1,77.4
0.123311,543.7,62.6,1395.1,103.1,2252.6,14.9,537.5,1417.1,2252.9,121.9,77.1
0.125311,540.6,64.0,1423.6,118.7,2256.0,18.7,537.8,1441.8,2244.2,120.8,76.9
0.127311,535.5,67.6,1458.5,137.7,2261.7,27.8,538,1460.5,2237.5,119.7,76.7
0.129311,530.0,66.9,1488.4,140.7,2268.5,38.7,538.2,1472.1,2233.3,118.7,76.6
0.131311,524.6,63.6,1510.8,129.4,2273.6,45.5,538.2,1476,2231.8,117.8,76.5
