time,f1,b1,f2,b2,f3,b3,f1p,f2p,f3p,f0,intensity
0.025553,297.4,112.5,1316.6,141.0,2328.6,331.4,451.1,1357.1,2337.5,109.1,78.9
0.027553,352.2,215.1,1340.7,196.0,2347.2,197.5,460.6,1357.2,2335.8,108.9,78.7
0.029553,457.7,323.3,1373.3,181.9,2340.4,134.4,476.1,1357.5,2333.1,108.7,78.4
0.031553,553.5,290.1,1381.0,143.1,2333.4,96.6,496.7,1357.7,2329.5,108.5,78.2
0.033553,595.3,238.7,1377.7,114.8,2331.7,77.7,521.4,1357.8,2325.3,108.3,78
0.035553,621.4,211.5,1371.6,99.0,2328.1,73.5,549.3,1357.6,2320.5,108,77.9
0.037553,646.2,201.5,1364.4,93.2,2312.4,79.7,578.8,1357,2315.6,107.8,77.8
0.039553,668.8,195.9,1356.6,87.8,2290.8,80.2,608.9,1355.9,2310.8,107.5,77.8
0.041553,683.3,188.6,1349.6,79.5,2282.7,72.0,638.3,1354.1,2306.3,107.2,77.8
0.043553,693.1,181.2,1343.7,73.0,2287.8,63.7,665.7,1351.5,2302.3,106.9,77.8
0.045553,703.9,175.8,1339.6,74.1,2296.4,57.5,690.3,1348.1,2299.1,106.6,77.9
0.047553,714.7,171.7,1337.2,85.2,2302.3,50.4,711.3,1343.9,2296.9,106.3,78
0.049553,718.7,165.6,1335.2,100.0,2305.8,42.0,728,1338.9,2295.6,106,78
0.051553,716.3,157.3,1331.7,106.4,2309.8,34.8,740.4,1333.1,2295.5,105.6,78.1
0.053553,712.7,149.9,1326.7,104.6,2314.7,30.5,748.3,1326.6,2296.4,105.3,78.1
0.055553,711.5,147.4,1320.4,103.7,2317.4,30.8,752,1319.5,2298.3,105,78.2
0.057553,712.2,150.0,1312.9,107.8,2312.8,38.1,752,1312,2301.2,104.6,78.2
0.059553,712.3,149.9,1305.4,110.2,2300.0,49.9,749,1304.1,2304.8,104.3,78.3
0.061553,712.6,144.7,1299.5,108.3,2289.5,59.4,743.6,1296.1,2309,103.9,78.4
0.063553,715.7,140.1,1293.9,107.7,2291.4,64.7,736.7,1288,2313.6,103.6,78.5
0.065553,722.2,142.9,1285.3,111.9,2304.0,63.5,729,1279.9,2318.4,103.2,78.5
0.067553,728.0,153.0,1271.5,117.3,2317.6,53.4,721.4,1271.9,2323.3,102.8,78.6
0.069553,728.6,161.8,1259.2,117.6,2327.0,43.3,714.5,1264,2327.9,102.5,78.8
0.071553,727.4,163.7,1252.6,115.4,2335.5,39.5,708.8,1256.1,2332.3,102.1,78.9
0.073553,728.8,164.3,1247.5,115.5,2344.9,42.6,704.7,1248.4,2336.2,101.7,79
0.075553,732.3,173.4,1239.7,118.2,2353.3,52.7,702.2,1240.5,2339.6,101.3,79
0.077553,732.5,195.6,1229.1,119.7,2355.5,67.1,701.3,1232.6,2342.5,101,79
0.079553,725.4,215.3,1219.5,114.7,2349.1,75.7,702,1224.3,2344.8,100.6,79
0.081553,718.1,212.5,1214.1,103.3,2341.6,70.7,703.8,1215.7,2346.6,100.2,78.8
0.083553,717.7,195.1,1211.3,94.6,2341.5,58.6,706.3,1206.5,2348,99.8,78.7
0.085553,719.6,185.9,1205.4,96.8,2346.4,46.8,708.9,1196.7,2349,99.5,78.5
0.087553,715.6,199.5,1191.6,116.0,2348.3,38.7,711.3,1186.2,2349.8,99.1,78.2
0.089553,703.4,221.4,1173.4,139.5,2347.0,33.1,712.9,1175,2350.4,98.7,78
0.091553,692.6,223.9,1161.5,149.5,2347.5,28.2,713.2,1163.2,2351.1,98.3,77.8
0.093553,690.1,211.0,1155.0,153.0,2350.3,24.8,711.9,1150.7,2351.8,98,77.6
0.095553,692.7,206.8,1143.6,165.1,2354.2,24.6,708.9,1137.7,2352.8,97.6,77.3
0.097553,689.5,228.4,1118.9,187.0,2357.0,29.8,704.1,1124.4,2353.9,97.2,77.1
0.099553,673.6,251.8,1093.0,190.1,2357.2,38.4,697.5,1110.9,2355.4,96.9,77
0.101553,661.2,245.4,1085.2,172.6,2356.1,41.3,689.3,1097.6,2357.2,96.5,76.8
0.103553,660.6,228.6,1086.9,158.0,2356.7,37.5,679.9,1084.7,2359.3,96.2,76.6
0.105553,663.7,225.7,1084.8,160.0,2359.5,34.3,669.6,1072.3,2361.7,95.9,76.4
0.107553,661.1,247.1,1070.4,188.1,2364.1,36.3,658.9,1060.8,2364.3,95.5,76.3
0.109553,648.9,264.8,1046.7,218.0,2369.0,40.8,648.2,1050.4,2367.1,95.2,76.3
0.111553,641.0,253.6,1034.5,228.4,2373.4,41.3,638.1,1041.1,2370,94.9,76.3
0.113553,644.9,233.2,1035.4,237.5,2377.8,39.0,628.8,1033.2,2372.9,94.6,76.2
0.115553,656.9,225.7,1039.6,262.7,2382.5,39.6,620.6,1026.7,2375.8,94.3,76.2
0.117553,667.6,242.5,1037.1,296.3,2385.3,49.1,613.8,1021.5,2378.6,94,76.1
0.119553,653.5,274.4,1017.1,279.2,2382.7,74.4,608.5,1017.6,2381.2,93.7,76
0.121553,611.9,266.1,1000.1,208.5,2376.2,110.8,604.7,1014.9,2383.7,93.4,75.9
0.123553,587.5,230.1,997.3,160.9,2374.1,121.1,602.2,1013.2,2385.8,93.2,75.6
0.125553,580.5,211.3,1000.7,142.1,2376.8,100.3,600.9,1012.4,2387.7,92.9,75.4
0.127553,582.0,223.5,1008.3,149.7,2383.6,74.4,600.4,1012.2,2389.3,92.7,75.1
0.129553,592.7,256.4,1020.5,185.0,2389.3,63.6,600.6,1012.4,2390.6,92.5,74.8
0.131553,606.1,270.0,1031.5,226.0,2390.3,64.7,601.1,1012.8,2391.6,92.2,74.5
0.133553,606.1,266.8,1029.7,248.3,2391.6,64.7,601.7,1013.2,2392.3,92,74.2
0.135553,594.1,263.8,1015.2,257.5,2397.8,58.9,602.1,1013.5,2392.8,91.9,73.9
0.137553,574.9,271.9,991.3,276.7,2408.0,50.3,602.3,1013.6,2392.9,91.7,73.5
