time,f1,b1,f2,b2,f3,b3,f1p,f2p,f3p,f0,intensity
0.025324,431.6,239.7,962.3,519.9,2261.1,157.2,458.3,1004.2,2286.9,119.8,67.8
0.027324,445.5,245.8,986.2,492.3,2275.3,129.9,462.3,1008.6,2288.9,119.3,69.4
0.029324,468.5,270.1,1022.2,515.2,2291.1,105.5,468.9,1015.5,2292.2,118.8,70.7
0.031324,491.4,289.2,1049.2,526.5,2302.9,85.0,477.6,1024.6,2296.6,118.3,71.8
0.033324,506.4,288.2,1062.6,493.5,2310.8,67.3,488,1035.3,2301.9,117.8,72.6
0.035324,513.7,274.0,1066.7,432.8,2316.9,54.0,499.6,1047,2307.8,117.3,73.2
0.037324,519.4,262.3,1070.2,382.1,2323.4,46.3,511.8,1058.9,2314.1,116.9,73.6
0.039324,528.3,262.0,1078.2,363.4,2330.9,44.9,524.1,1070.5,2320.6,116.4,73.9
0.041324,539.7,256.8,1085.7,356.2,2337.9,46.2,536,1081.1,2326.9,115.9,74.1
0.043324,548.7,230.5,1085.8,326.3,2342.1,45.0,547.1,1090.2,2332.9,115.5,74.3
0.045324,555.7,199.1,1082.7,283.5,2343.7,41.9,556.9,1097.5,2338.4,115,74.4
0.047324,561.7,185.0,1085.1,256.4,2343.8,41.6,565.3,1102.7,2343.4,114.6,74.5
0.049324,565.7,197.6,1094.4,252.6,2343.1,46.2,572,1105.9,2347.6,114.2,74.6
0.051324,568.1,219.0,1102.2,251.2,2344.0,50.5,577.2,1107,2351.1,113.8,74.6
0.053324,572.6,224.0,1104.0,240.5,2347.3,50.7,580.8,1106.5,2353.9,113.5,74.6
0.055324,580.2,220.2,1102.7,231.8,2351.0,51.5,583.2,1104.7,2356.2,113.1,74.6
0.057324,587.7,232.3,1101.8,236.3,2351.7,59.3,584.5,1102,2357.9,112.8,74.6
0.059324,590.4,261.1,1101.2,240.8,2349.4,71.3,585.1,1098.9,2359.3,112.5,74.7
0.061324,587.3,273.1,1100.7,225.5,2349.7,75.3,585.4,1096,2360.6,112.2,74.7
0.063324,584.1,257.1,1101.0,203.3,2355.6,70.2,585.6,1093.7,2361.8,111.9,74.7
0.065324,584.4,247.7,1101.6,200.8,2363.7,66.1,586.1,1092.4,2363,111.7,74.8
0.067324,587.5,271.8,1102.3,230.3,2369.4,68.4,587,1092.2,2364.5,111.4,74.9
0.069324,590.8,309.5,1101.3,265.3,2372.4,70.8,588.6,1093.4,2366.2,111.2,74.9
0.071324,591.1,320.9,1099.3,270.9,2375.1,67.2,590.9,1095.8,2368.1,111,75
0.073324,591.9,312.0,1097.9,265.2,2378.2,62.3,593.8,1099.3,2370.3,110.8,75.1
0.075324,598.1,314.9,1098.2,283.3,2379.5,63.6,597.2,1103.7,2372.8,110.6,75.1
0.077324,606.3,330.4,1101.0,320.4,2377.8,69.4,601,1108.6,2375.3,110.4,75.1
0.079324,607.3,330.5,1104.6,328.9,2377.6,69.8,604.9,1113.5,2378,110.2,75.1
0.081324,603.5,315.7,1106.6,309.1,2382.0,63.5,608.6,1118.1,2380.5,110.1,75.1
0.083324,604.0,308.4,1108.1,301.9,2388.8,58.2,611.8,1121.9,2382.8,109.9,75
0.085324,614.6,323.3,1116.3,339.0,2392.7,60.5,614.3,1124.6,2384.9,109.7,74.9
0.087324,629.3,337.7,1134.1,395.2,2388.8,68.8,615.9,1125.9,2386.5,109.6,74.9
0.089324,628.3,328.0,1142.3,398.6,2381.0,74.0,616.4,1125.6,2387.7,109.4,74.8
0.091324,616.9,310.1,1133.3,368.1,2378.3,74.0,615.7,1123.8,2388.3,109.3,74.7
0.093324,609.7,306.0,1121.7,359.1,2380.9,76.8,613.7,1120.4,2388.4,109.1,74.7
0.095324,609.0,318.8,1116.5,385.3,2381.6,89.1,610.5,1115.8,2388.1,109,74.6
0.097324,602.9,321.4,1112.8,396.1,2378.3,102.3,606.3,1110.2,2387.2,108.8,74.6
0.099324,590.7,304.2,1106.3,371.4,2377.7,102.8,601.2,1104,2386,108.7,74.6
0.101324,582.0,285.7,1098.5,351.2,2382.1,98.1,595.4,1097.5,2384.5,108.6,74.6
0.103324,580.7,283.7,1093.0,368.8,2385.9,103.6,589.1,1091.2,2382.9,108.4,74.6
0.105324,582.0,291.1,1089.3,409.2,2384.4,122.1,582.7,1085.4,2381.1,108.3,74.6
0.107324,577.1,286.6,1080.7,416.6,2380.0,137.7,576.3,1080.4,2379.3,108.2,74.6
0.109324,569.4,269.9,1068.3,393.6,2379.6,139.8,570.1,1076.4,2377.6,108.1,74.6
0.111324,566.1,256.1,1059.5,380.0,2382.3,137.0,564.4,1073.6,2376.1,108,74.6
0.113324,567.4,254.6,1061.5,388.9,2382.7,134.8,559.3,1071.9,2374.8,107.8,74.5
0.115324,566.9,257.1,1070.2,392.9,2381.5,125.1,554.7,1071.2,2373.6,107.7,74.5
0.117324,564.0,255.2,1075.6,382.7,2382.9,107.0,550.9,1071.4,2372.7,107.6,74.5
0.119324,562.5,254.1,1076.9,380.5,2386.2,89.4,547.8,1072.2,2372,107.5,74.5
0.121324,563.2,267.1,1079.1,407.0,2386.1,79.9,545.3,1073.4,2371.5,107.5,74.4
0.123324,559.6,297.9,1081.8,445.9,2377.8,79.8,543.4,1074.7,2371.2,107.4,74.4
0.125324,543.9,325.8,1079.3,446.0,2363.9,79.9,542.1,1075.9,2371,107.3,74.3
0.127324,522.2,335.5,1075.3,419.0,2352.2,73.2,541.4,1076.6,2370.8,107.2,74.3
0.129324,497.6,331.3,1071.1,394.1,2344.4,65.7,541.1,1076.9,2370.8,107.2,74.3
