time,f1,b1,f2,b2,f3,b3,f1p,f2p,f3p,f0,intensity
0.025388,315.6,152.4,1880.8,93.9,2358.2,24.9,341.6,1941.9,2364.7,178.1,82.6
0.027388,330.4,119.2,1897.3,93.3,2354.0,22.6,342.1,1944.3,2365.8,177.8,83
0.029388,340.3,96.7,1921.8,97.4,2353.3,25.3,343,1948.3,2367.5,177.5,83.3
0.031388,347.2,83.7,1950.5,99.5,2357.0,34.3,344.1,1953.7,2369.9,177.2,83.5
0.033388,352.0,77.7,1974.4,94.0,2366.3,51.1,345.6,1960.5,2372.9,176.9,83.7
0.035388,355.2,75.9,1990.2,83.1,2381.9,75.1,347.2,1968.5,2376.6,176.5,83.8
0.037388,357.6,76.4,2001.6,73.1,2398.7,98.4,348.9,1977.5,2380.8,176.1,83.8
0.039388,359.5,79.8,2012.3,70.0,2405.8,111.8,350.6,1987.5,2385.7,175.7,83.8
0.041388,360.8,85.8,2022.4,75.3,2401.2,117.0,352.4,1998.1,2391.1,175.2,83.8
0.043388,361.5,92.6,2031.6,86.0,2394.6,122.1,354,2009.2,2397.1,174.7,83.8
0.045388,361.1,96.9,2041.8,95.8,2394.3,132.6,355.5,2020.6,2403.5,174.2,83.7
0.047388,359.8,97.1,2055.3,98.2,2402.7,151.2,356.8,2032.1,2410.4,173.6,83.7
0.049388,358.2,94.8,2070.2,93.0,2418.9,174.8,357.9,2043.4,2417.7,173,83.7
0.051388,357.0,93.4,2081.0,85.1,2438.7,192.2,358.6,2054.5,2425.4,172.4,83.7
0.053388,356.4,94.8,2083.9,79.2,2454.6,195.1,359,2065.1,2433.4,171.7,83.6
0.055388,356.2,99.1,2080.8,76.3,2463.1,190.2,359.2,2075.2,2441.7,171,83.6
0.057388,355.8,104.7,2075.7,76.1,2466.7,185.8,359,2084.5,2450.3,170.3,83.6
0.059388,355.4,109.3,2071.8,79.6,2468.4,183.8,358.5,2093,2459.1,169.6,83.6
0.061388,354.8,113.1,2069.8,87.6,2469.6,182.7,357.9,2100.7,2468.1,168.9,83.6
0.063388,354.2,116.8,2072.3,99.1,2469.6,184.1,357,2107.4,2477.2,168.1,83.6
0.065388,353.6,120.5,2082.0,112.1,2467.9,192.2,356,2113.3,2486.4,167.3,83.6
0.067388,353.2,123.1,2097.8,122.3,2467.2,208.6,354.9,2118.3,2495.7,166.5,83.6
0.069388,352.6,124.3,2113.2,122.4,2473.3,231.2,353.7,2122.5,2504.9,165.7,83.7
0.071388,352.4,125.7,2122.3,112.6,2489.7,258.7,352.7,2125.9,2514.1,164.9,83.7
0.073388,352.5,129.4,2126.0,102.6,2514.5,287.4,351.7,2128.6,2523.1,164.1,83.7
0.075388,352.1,132.5,2127.4,100.1,2538.7,301.1,350.8,2130.8,2532,163.3,83.8
0.077388,350.6,131.2,2128.0,106.2,2553.6,295.6,350.2,2132.5,2540.6,162.4,83.9
0.079388,348.6,127.2,2128.4,117.1,2560.9,287.4,349.7,2133.8,2548.9,161.6,84
0.081388,346.6,123.8,2130.0,126.8,2564.6,289.1,349.5,2135,2556.9,160.7,84
0.083388,345.5,124.3,2136.0,132.4,2567.4,303.2,349.5,2136,2564.4,159.9,84.1
0.085388,346.3,132.2,2146.6,134.2,2572.0,317.7,349.6,2137,2571.5,159.1,84.2
0.087388,348.8,148.3,2157.0,131.3,2577.8,314.0,349.9,2138.1,2577.9,158.2,84.3
0.089388,352.3,168.3,2162.9,124.6,2581.4,298.5,350.4,2139.4,2583.8,157.4,84.3
0.091388,355.8,185.9,2163.5,120.0,2582.3,287.3,350.9,2140.8,2588.9,156.5,84.3
0.093388,357.6,197.4,2159.3,119.6,2583.5,273.0,351.4,2142.5,2593.3,155.7,84.4
0.095388,357.6,203.6,2152.7,118.4,2588.9,246.2,351.9,2144.3,2596.9,154.8,84.4
0.097388,357.4,208.6,2149.9,114.1,2599.3,222.8,352.2,2146.4,2599.6,154,84.4
0.099388,357.4,215.4,2153.2,111.2,2614.2,215.0,352.3,2148.6,2601.4,153.1,84.3
0.101388,355.5,217.1,2159.1,115.4,2629.9,223.1,352.2,2150.8,2602.3,152.3,84.3
0.103388,351.3,209.8,2162.8,128.4,2638.6,240.9,351.7,2153.1,2602.3,151.4,84.2
0.105388,347.4,201.8,2160.1,142.5,2635.2,258.1,350.9,2155.1,2601.2,150.5,84.1
0.107388,345.4,201.2,2152.5,141.9,2622.6,263.3,349.7,2157,2599.2,149.7,84
0.109388,344.9,205.8,2146.3,126.5,2604.2,257.5,348.1,2158.4,2596.2,148.8,83.9
0.111388,344.8,209.2,2143.7,111.4,2581.2,246.0,346,2159.2,2592.3,147.9,83.8
0.113388,343.7,208.5,2143.1,101.2,2560.3,230.2,343.6,2159.4,2587.5,147.1,83.7
0.115388,340.9,203.5,2144.8,92.1,2546.0,216.1,340.7,2158.8,2581.8,146.2,83.6
0.117388,337.0,194.0,2148.8,84.6,2535.7,210.1,337.4,2157.2,2575.2,145.3,83.5
0.119388,332.9,182.9,2151.5,80.0,2529.5,209.0,333.9,2154.6,2568,144.4,83.4
0.121388,328.8,170.4,2149.0,75.7,2532.7,200.7,330.1,2150.8,2560,143.5,83.2
0.123388,323.2,151.6,2140.5,67.8,2544.6,179.6,326,2145.9,2551.5,142.6,83
0.125388,316.6,128.8,2129.8,57.5,2554.3,157.0,321.9,2139.7,2542.5,141.8,82.8
0.127388,311.5,111.8,2119.3,48.7,2554.8,142.2,317.7,2132.4,2533,140.9,82.6
0.129388,308.2,101.8,2107.3,43.7,2544.5,135.1,313.5,2123.9,2523.3,140,82.4
0.131388,305.2,92.5,2093.3,42.1,2521.6,129.0,309.3,2114.3,2513.4,139.1,82.2
0.133388,302.6,82.8,2080.8,41.7,2492.7,115.7,305.4,2103.8,2503.3,138.2,82
0.135388,301.4,79.6,2078.2,41.6,2477.1,103.0,301.6,2092.4,2493.3,137.4,81.9
0.137388,301.0,84.0,2085.2,42.6,2475.9,96.4,298,2080.3,2483.5,136.5,81.9
0.139388,300.7,90.8,2094.4,45.1,2481.0,91.1,294.7,2067.8,2473.9,135.7,81.9
0.141388,300.0,93.7,2097.2,49.5,2484.2,84.0,291.7,2055,2464.6,134.8,82
0.143388,298.2,90.2,2089.7,54.8,2482.7,75.4,289,2042.2,2455.8,134,82
0.145388,294.8,83.5,2074.7,59.0,2476.9,66.2,286.7,2029.7,2447.5,133.2,82.1
0.147388,291.4,77.2,2057.4,62.9,2466.4,57.2,284.6,2017.6,2439.9,132.4,82.1
0.149388,289.8,72.5,2039.7,67.9,2453.0,48.9,282.9,2006.3,2432.9,131.7,82
0.151388,289.1,68.0,2021.1,72.6,2440.5,41.7,281.4,1995.9,2426.7,130.9,81.8
0.153388,286.8,64.2,2001.3,76.5,2429.6,36.1,280.3,1986.7,2421.4,130.2,81.5
0.155388,281.8,62.8,1979.1,81.3,2417.8,32.2,279.3,1978.9,2416.9,129.5,81.2
0.157388,275.0,63.7,1954.9,88.0,2403.3,29.4,278.6,1972.6,2413.4,128.9,80.8
0.159388,268.6,62.8,1932.1,96.5,2388.3,26.9,278.2,1968.1,2410.9,128.3,80.5
0.161388,264.4,58.0,1914.7,112.8,2377.8,25.7,277.9,1965.3,2409.4,127.7,80.3
0.163388,264.0,53.6,1902.9,154.5,2373.4,27.9,277.8,1964.3,2408.9,127.1,80.4
