time,f1,b1,f2,b2,f3,b3,f1p,f2p,f3p,f0,intensity
0.025778,327.8,78.7,2273.7,137.1,2895.2,426.9,356,2294.6,2712.3,127.5,69.9
0.027778,330.5,59.6,2279.5,115.3,2868.9,480.7,356.3,2294,2713.3,127.5,71
0.029778,337.8,48.0,2283.7,115.0,2803.2,458.7,356.7,2293.2,2715,127.4,71.8
0.031778,348.3,40.8,2281.7,125.1,2747.8,383.9,357.3,2292,2717.3,127.4,72.4
0.033778,357.8,35.9,2276.3,134.5,2718.9,329.7,358.1,2290.6,2720.2,127.3,72.8
0.035778,364.3,33.3,2274.0,140.9,2705.8,322.6,359,2288.9,2723.6,127.1,73.1
0.037778,370.4,33.5,2278.0,146.7,2696.5,364.8,360,2287.1,2727.5,127,73.3
0.039778,376.8,36.5,2285.3,148.8,2688.0,430.1,361.1,2285.2,2731.8,126.8,73.4
0.041778,380.6,40.0,2289.7,145.1,2686.7,464.4,362.3,2283.2,2736.5,126.6,73.6
0.043778,379.9,41.4,2289.9,140.9,2695.1,449.2,363.5,2281.3,2741.4,126.3,73.8
0.045778,376.7,40.6,2288.9,144.3,2700.4,412.9,364.7,2279.4,2746.5,0,74.1
0.047778,373.7,38.4,2288.5,153.8,2698.9,383.2,366,2277.8,2751.7,0,74.4
0.049778,371.8,35.6,2288.2,154.0,2698.8,373.7,367.2,2276.3,2756.9,0,74.8
0.051778,370.4,32.8,2285.5,138.0,2704.3,371.7,368.3,2275.2,2762,0,75.1
0.053778,368.7,31.9,2278.8,113.3,2712.8,355.0,369.4,2274.5,2766.9,0,75.3
0.055778,366.3,34.5,2271.7,91.8,2719.6,318.6,370.3,2274.2,2771.6,0,75.5
0.057778,365.0,38.2,2268.3,78.3,2723.2,289.6,371.1,2274.4,2775.8,0,75.5
0.059778,367.5,37.8,2268.4,71.2,2727.1,285.8,371.8,2275.2,2779.6,0,75.5
0.061778,373.3,33.7,2271.0,67.1,2734.3,305.4,372.3,2276.6,2782.9,0,75.4
0.063778,379.8,29.3,2277.6,67.1,2747.9,355.4,372.5,2278.5,2785.6,0,75.2
0.065778,384.1,27.4,2292.5,74.6,2768.6,442.5,372.6,2281.1,2787.7,0,75.1
0.067778,383.7,27.7,2311.7,85.6,2783.9,514.2,372.4,2284.4,2789,0,75
0.069778,380.5,27.2,2323.3,92.5,2789.3,543.2,372,2288.3,2789.6,0,74.9
0.071778,376.6,26.2,2325.7,96.8,2791.8,542.3,371.4,2292.8,2789.4,0,74.8
0.073778,371.1,27.6,2326.5,105.1,2798.1,529.6,370.5,2298,2788.4,0,74.7
0.075778,362.8,33.8,2332.3,117.6,2808.1,512.6,369.4,2303.7,2786.6,0,74.6
0.077778,355.6,40.8,2339.3,120.0,2819.9,497.6,368,2309.9,2784,0,74.4
0.079778,354.1,43.0,2342.4,113.0,2834.2,489.6,366.5,2316.5,2780.6,0,74.1
0.081778,358.8,41.2,2341.2,110.9,2841.6,481.5,364.7,2323.5,2776.5,0,73.9
0.083778,366.4,41.0,2334.8,130.2,2821.0,441.8,362.7,2330.9,2771.7,0,73.7
0.085778,370.8,44.0,2323.5,160.1,2786.2,370.1,360.6,2338.4,2766.2,0,73.8
0.087778,369.2,45.9,2318.3,166.1,2768.2,328.9,358.3,2346.1,2760,0,73.9
0.089778,363.5,45.5,2323.5,153.1,2764.5,335.5,355.9,2353.9,2753.4,0,74.3
0.091778,355.4,45.4,2329.8,138.3,2763.4,365.1,353.3,2361.6,2746.3,0,74.7
0.093778,345.4,48.7,2331.6,132.4,2754.8,391.6,350.7,2369.1,2738.9,114.8,75.2
0.095778,337.3,53.1,2332.0,133.8,2743.9,405.3,348,2376.5,2731.2,114.6,75.6
0.097778,333.2,54.4,2338.3,132.1,2738.1,433.0,345.3,2383.5,2723.3,114.3,75.9
0.099778,331.6,52.2,2353.3,123.3,2734.6,490.1,342.6,2390.1,2715.4,114.1,76.2
0.101778,329.1,48.5,2376.5,109.1,2725.1,569.3,339.9,2396.3,2707.6,113.9,76.4
0.103778,323.9,45.2,2399.5,97.9,2705.5,617.4,337.2,2401.9,2699.9,113.8,76.5
0.105778,318.8,41.9,2413.4,93.6,2687.4,613.3,334.6,2406.9,2692.5,113.7,76.6
0.107778,318.4,38.1,2416.3,90.8,2687.0,596.8,332.1,2411.3,2685.4,113.7,76.7
0.109778,322.2,34.8,2414.1,87.1,2701.3,600.8,329.7,2415,2678.9,113.7,76.9
0.111778,326.9,34.2,2413.5,88.1,2713.9,639.6,327.4,2418,2672.9,113.8,77.1
0.113778,328.2,36.8,2417.5,95.3,2710.0,706.1,325.3,2420.2,2667.7,113.9,77.2
0.115778,326.9,39.8,2421.7,100.5,2696.6,776.3,323.3,2421.7,2663.1,114,77.4
0.117778,325.9,40.8,2422.4,101.2,2681.2,820.2,321.5,2422.5,2659.5,114.2,77.4
0.119778,327.4,40.1,2422.4,105.2,2653.9,805.4,319.8,2422.6,2656.7,114.4,77.4
0.121778,330.2,39.5,2426.1,119.8,2613.3,729.3,318.3,2422,2654.9,114.7,77.3
0.123778,330.9,40.5,2431.9,133.6,2582.5,669.8,316.9,2420.8,2654.1,114.9,77.2
0.125778,328.4,42.5,2433.6,124.2,2582.6,689.3,315.8,2419,2654.3,115.2,77.1
0.127778,325.9,44.9,2431.8,99.0,2604.4,772.0,314.8,2416.7,2655.6,115.5,76.9
0.129778,325.5,48.4,2431.7,78.3,2615.8,873.6,313.9,2413.9,2658,115.9,76.8
0.131778,325.2,52.5,2433.9,72.7,2594.2,916.1,313.3,2410.7,2661.4,116.2,76.6
0.133778,322.0,54.0,2434.4,76.1,2568.8,896.0,312.7,2407.2,2665.9,116.6,76.5
0.135778,317.5,52.0,2429.6,80.5,2573.3,867.8,312.3,2403.5,2671.4,116.9,76.4
0.137778,314.6,48.5,2418.5,83.6,2613.4,851.3,312.1,2399.6,2677.8,117.3,76.3
0.139778,313.5,46.1,2404.6,87.5,2669.1,836.1,311.9,2395.7,2685.1,117.7,76.2
0.141778,311.5,44.5,2392.2,88.7,2730.6,818.5,311.9,2391.7,2693.2,118.1,76.1
0.143778,308.6,43.8,2386.1,83.5,2784.3,803.5,311.9,2387.7,2702,118.5,76
0.145778,306.9,45.0,2386.8,77.9,2803.6,810.3,312.1,2383.9,2711.5,118.8,75.9
0.147778,307.3,49.0,2389.9,78.6,2783.6,821.8,312.3,2380.3,2721.5,119.2,75.8
0.149778,308.0,51.8,2389.2,84.7,2758.0,780.7,312.6,2376.8,2732,119.6,75.8
0.151778,307.6,51.5,2381.5,91.6,2755.8,686.0,312.9,2373.6,2742.7,119.9,75.8
0.153778,307.3,50.6,2368.3,97.0,2774.1,563.9,313.4,2370.6,2753.6,120.3,75.8
0.155778,307.8,50.6,2354.7,102.1,2792.4,457.3,313.8,2367.9,2764.5,120.6,75.9
0.157778,308.3,50.0,2347.4,107.1,2803.9,409.3,314.4,2365.4,2775.4,120.9,76
0.159778,308.0,47.9,2349.0,108.7,2814.2,420.1,315,2363.2,2786,121.3,76.2
0.161778,307.8,46.1,2353.3,107.8,2825.6,445.8,315.6,2361.2,2796.2,121.6,76.3
0.163778,308.8,45.1,2354.7,109.5,2829.9,450.2,316.3,2359.4,2806,121.9,76.5
0.165778,310.8,44.0,2353.8,113.2,2829.1,439.7,317.1,2357.7,2815.1,122.2,76.6
0.167778,313.2,42.4,2353.0,115.4,2829.1,442.9,318,2356.1,2823.5,122.5,76.7
0.169778,316.3,41.6,2349.9,119.5,2821.5,453.9,319,2354.4,2831,122.8,76.8
0.171778,320.3,42.5,2341.7,124.4,2804.1,440.1,320,2352.7,2837.5,123.1,76.8
0.173778,324.0,44.2,2335.3,119.0,2798.6,407.6,321.2,2350.8,2842.9,123.3,76.9
0.175778,326.5,45.1,2336.2,103.5,2811.2,385.1,322.6,2348.6,2847.2,123.6,76.9
0.177778,328.5,44.8,2339.3,91.0,2828.2,387.2,324.1,2346.1,2850.2,123.9,77
0.179778,330.4,44.1,2339.8,87.0,2842.1,415.6,325.7,2343.1,2851.9,124.1,77
0.181778,331.4,42.9,2337.0,91.6,2848.1,452.2,327.5,2339.6,2852.2,124.4,77.1
0.183778,331.9,41.1,2334.6,102.2,2843.8,481.5,329.5,2335.4,2851.1,124.7,77.2
0.185778,333.3,39.7,2332.4,115.4,2832.8,491.9,331.8,2330.6,2848.6,124.9,77.3
0.187778,335.7,39.5,2323.2,129.3,2821.0,478.9,334.2,2324.9,2844.6,125.2,77.4
0.189778,337.7,39.4,2306.8,136.1,2818.6,470.4,336.8,2318.4,2839.2,125.4,77.5
0.191778,339.5,38.7,2293.6,134.2,2826.4,508.3,339.7,2310.9,2832.4,125.7,77.6
0.193778,342.5,38.2,2285.2,129.6,2840.1,600.8,342.8,2302.5,2824.2,126,77.7
0.195778,346.8,39.3,2275.8,126.4,2855.5,691.3,346.2,2293.1,2814.6,126.2,77.8
0.197778,350.8,40.5,2262.1,124.2,2861.8,704.4,349.7,2282.7,2803.7,126.5,77.9
0.199778,354.4,40.3,2250.2,121.5,2850.4,653.8,353.5,2271.3,2791.7,126.7,78.1
0.201778,359.4,39.6,2244.0,121.2,2828.3,621.0,357.5,2258.9,2778.5,127,78.2
0.203778,364.9,40.0,2241.7,129.0,2801.3,645.5,361.7,2245.6,2764.3,127.2,78.4
0.205778,369.8,41.3,2240.5,143.6,2768.8,709.0,366.1,2231.4,2749.2,127.4,78.6
0.207778,374.2,42.0,2239.8,160.3,2731.7,765.4,370.7,2216.4,2733.4,127.6,78.8
0.209778,379.4,41.9,2238.1,184.2,2696.2,767.3,375.3,2200.6,2716.8,127.8,79
0.211778,385.3,43.2,2232.0,227.6,2674.6,697.8,380.1,2184.2,2699.8,128,79.3
0.213778,390.1,46.1,2219.2,285.7,2668.4,604.9,385,2167.3,2682.4,128.2,79.5
0.215778,394.2,48.5,2198.3,346.5,2665.0,531.7,389.9,2150,2664.8,128.3,79.7
0.217778,398.2,49.6,2166.7,395.4,2659.1,499.8,394.8,2132.4,2647.1,128.5,79.8
0.219778,401.9,51.8,2128.5,414.9,2646.0,522.5,399.7,2114.8,2629.6,128.6,80
0.221778,404.9,54.8,2105.7,421.6,2601.6,600.1,404.5,2097.3,2612.2,128.7,80.1
0.223778,407.5,56.1,2095.1,446.6,2512.5,640.3,409.3,2080,2595.3,128.8,80.1
0.225778,409.2,54.7,2070.1,485.8,2440.1,556.6,413.8,2063.1,2578.9,128.8,80
0.227778,409.5,52.6,2028.1,464.6,2434.4,455.4,418.2,2046.8,2563.3,128.9,79.8
0.229778,409.6,51.4,2005.7,383.9,2459.2,401.8,422.4,2031.2,2548.4,128.9,79.6
0.231778,411.2,51.4,2001.5,303.5,2484.6,373.5,426.3,2016.5,2534.6,128.9,79.2
0.233778,414.0,55.1,2001.1,237.2,2504.0,346.1,429.9,2003,2521.8,128.9,78.7
0.235778,416.7,65.2,1995.6,191.5,2512.8,310.2,433.1,1990.6,2510.2,128.9,78.3
0.237778,419.6,78.9,1983.1,163.0,2511.5,271.7,436,1979.6,2500,128.9,77.8
0.239778,424.8,91.4,1969.2,149.7,2512.5,245.2,438.5,1970,2491.2,128.9,77.4
0.241778,433.2,106.7,1956.2,152.0,2523.0,230.6,440.6,1962.1,2483.9,128.8,77.1
0.243778,444.6,123.5,1945.5,167.1,2538.0,215.3,442.3,1955.8,2478.1,128.8,77
0.245778,457.4,131.1,1937.5,184.0,2547.7,194.6,443.4,1951.3,2473.9,128.7,76.9
0.247778,470.2,127.0,1926.8,197.4,2551.1,176.3,444.2,1948.5,2471.4,128.7,76.9
0.249778,481.2,119.4,1906.7,207.4,2551.9,166.5,444.4,1947.6,2470.6,128.6,77
