time,f1,b1,f2,b2,f3,b3,f1p,f2p,f3p,f0,intensity
0.025519,580.5,133.9,1472.8,77.2,2348.3,138.6,579,1474,2330.6,135.8,75.5
0.027519,579.8,132.4,1472.8,79.5,2341.4,138.8,578.7,1473.4,2329.9,135.9,75.5
0.029519,578.4,130.9,1472.4,84.9,2334.0,123.9,578.2,1472.3,2328.9,135.9,75.4
0.031519,576.8,128.4,1470.5,88.7,2328.1,107.0,577.6,1470.8,2327.6,136,75.4
0.033519,574.7,124.7,1466.9,88.1,2323.1,96.9,576.7,1468.7,2326.1,136,75.4
0.035519,572.3,124.3,1461.9,85.1,2317.7,94.7,575.7,1466,2324.6,136.1,75.4
0.037519,571.1,129.4,1457.4,83.2,2312.6,98.4,574.6,1462.6,2323.1,136.1,75.4
0.039519,571.1,135.3,1454.6,84.2,2309.2,101.4,573.3,1458.4,2321.9,136.2,75.4
0.041519,570.5,138.9,1453.4,92.0,2309.4,98.7,571.9,1453.3,2321.1,136.2,75.3
0.043519,569.1,143.3,1452.9,111.3,2311.5,92.7,570.5,1447.3,2320.7,136.3,75.3
0.045519,568.4,150.4,1450.7,144.6,2313.9,86.2,568.9,1440.4,2321,136.3,75.2
0.047519,568.7,158.0,1443.2,179.3,2317.2,81.0,567.2,1432.4,2321.9,136.4,75.2
0.049519,568.4,166.2,1429.3,203.8,2322.4,78.1,565.5,1423.4,2323.6,136.4,75.1
0.051519,567.6,177.9,1411.1,220.1,2329.7,77.7,563.7,1413.5,2325.9,136.5,75.1
0.053519,567.0,187.9,1396.6,228.2,2336.3,78.2,561.8,1402.6,2329,136.5,75
0.055519,566.1,192.0,1385.7,228.8,2341.4,77.6,559.8,1391,2332.6,136.6,75
0.057519,563.6,190.7,1375.6,216.6,2345.8,76.0,557.7,1378.6,2336.8,136.6,75
0.059519,560.4,185.9,1365.2,193.1,2350.3,74.3,555.4,1365.7,2341.4,136.7,74.9
0.061519,557.0,177.1,1354.7,169.0,2354.9,72.8,553,1352.3,2346.2,136.7,74.9
0.063519,552.4,167.9,1344.1,155.6,2359.0,73.4,550.5,1338.6,2351,136.8,74.9
0.065519,545.9,163.0,1331.2,153.0,2361.5,80.7,547.7,1324.7,2355.7,136.8,74.8
0.067519,539.6,163.7,1314.6,157.1,2361.8,100.6,544.7,1310.9,2360,136.8,74.8
0.069519,535.7,168.8,1297.8,166.2,2361.3,129.5,541.5,1297.1,2364,136.9,74.7
0.071519,532.0,174.3,1282.2,180.0,2362.5,148.2,538,1283.5,2367.2,136.9,74.7
0.073519,527.3,177.2,1264.9,196.0,2364.4,147.0,534.2,1270.2,2369.8,136.9,74.6
0.075519,523.3,174.5,1248.5,203.8,2365.0,134.9,530,1257.2,2371.6,136.9,74.6
0.077519,519.5,164.8,1234.0,198.2,2364.7,121.7,525.5,1244.5,2372.5,137,74.6
0.079519,514.2,152.2,1222.1,184.4,2364.2,112.6,520.7,1232.2,2372.6,137,74.6
0.081519,509.2,142.3,1212.4,170.6,2364.3,108.9,515.6,1220.2,2372,137,74.5
0.083519,506.2,135.4,1203.6,160.1,2364.9,109.8,510,1208.5,2370.6,137,74.5
0.085519,504.2,132.8,1196.5,161.5,2365.2,116.4,504.2,1196.9,2368.7,137,74.5
0.087519,501.1,134.2,1190.1,179.6,2363.6,127.4,498.1,1185.4,2366.4,137,74.4
0.089519,497.4,138.0,1181.5,213.2,2360.2,137.7,491.6,1173.9,2364,137,74.4
0.091519,494.1,143.7,1170.4,249.7,2359.2,145.3,485,1162.3,2361.5,137,74.3
0.093519,489.5,150.2,1160.7,274.2,2361.9,156.3,478.1,1150.5,2359.2,137,74.2
0.095519,482.2,156.6,1151.7,284.3,2366.4,172.5,471,1138.5,2357.4,137,74.2
0.097519,474.4,160.7,1138.9,278.9,2369.4,180.3,463.8,1126.3,2356.1,137,74.1
0.099519,465.1,161.1,1119.7,261.9,2370.4,175.6,456.6,1113.8,2355.7,137,74
0.101519,453.9,158.4,1099.0,241.4,2369.2,170.1,449.3,1101.1,2356.2,136.9,74
0.103519,443.4,156.1,1081.8,223.9,2365.7,172.2,442.1,1088.4,2357.7,136.9,73.9
0.105519,434.3,157.1,1067.5,210.7,2362.4,172.7,435,1075.6,2360.2,136.9,73.8
0.107519,424.9,160.8,1056.9,208.2,2364.1,156.2,428,1062.9,2363.9,136.8,73.7
0.109519,414.8,165.1,1050.1,223.6,2369.9,129.7,421.2,1050.7,2368.6,136.8,73.6
0.111519,405.2,170.1,1043.5,259.7,2376.2,106.1,414.6,1038.9,2374.3,136.8,73.5
0.113519,397.9,177.4,1033.0,304.1,2379.9,91.6,408.4,1027.9,2380.9,136.7,73.5
0.115519,391.8,188.7,1017.0,353.1,2381.0,83.7,402.4,1017.9,2388.1,136.6,73.5
0.117519,386.9,201.0,1000.2,393.8,2381.1,81.2,396.8,1009.1,2396,136.6,73.5
0.119519,382.7,209.5,988.5,410.8,2383.8,80.8,391.5,1001.6,2404.2,136.5,73.5
0.121519,379.2,211.4,984.0,418.5,2392.4,80.6,386.7,995.8,2412.5,136.4,73.4
0.123519,378.3,207.4,986.1,446.2,2407.1,81.3,382.2,991.6,2420.8,136.3,73.4
0.125519,379.1,205.4,987.5,494.6,2423.5,82.0,378.1,989.2,2428.9,136.3,73.3
0.127519,378.9,208.8,983.4,539.3,2438.8,80.8,374.5,988.6,2436.6,136.2,73.3
0.129519,376.4,208.5,981.2,560.8,2450.4,77.3,371.2,989.8,2443.7,136.1,73.2
0.131519,373.0,197.5,989.3,576.7,2457.9,72.6,368.2,992.6,2450.2,135.9,73.1
0.133519,370.6,186.9,1004.0,620.6,2462.8,68.5,365.7,997,2456,135.8,73.1
0.135519,370.6,187.2,1015.4,697.5,2468.3,68.1,363.4,1002.8,2460.9,135.7,73
0.137519,372.6,189.4,1022.8,775.9,2476.6,69.7,361.5,1009.6,2465.1,135.6,73
0.139519,373.2,185.1,1028.5,816.0,2485.1,69.2,359.9,1017.2,2468.5,135.4,73.1
0.141519,370.6,179.4,1033.4,841.0,2489.0,65.8,358.5,1025.3,2471.2,135.3,73.1
0.143519,365.8,174.8,1044.7,879.5,2487.1,60.8,357.4,1033.5,2473.2,135.2,73.1
0.145519,361.4,171.3,1063.8,922.1,2481.8,55.2,356.4,1041.5,2474.7,135,73.2
0.147519,358.6,173.1,1075.4,952.3,2477.2,50.2,355.7,1048.9,2475.7,134.9,73.3
0.149519,355.2,180.5,1071.4,946.9,2473.7,45.8,355.1,1055.4,2476.4,134.8,73.3
0.151519,349.8,182.4,1058.8,875.2,2470.1,42.2,354.7,1060.8,2476.8,134.6,73.4
0.153519,344.2,173.8,1046.1,778.0,2465.9,39.4,354.4,1064.9,2477,134.5,73.4
0.155519,340.5,166.7,1036.8,742.5,2462.7,39.0,354.2,1067.4,2477.1,134.4,73.5
0.157519,338.7,170.8,1033.2,800.6,2460.6,42.1,354.2,1068.2,2477.1,134.2,73.5
