time,f1,b1,f2,b2,f3,b3,f1p,f2p,f3p,f0,intensity
0.025383,406.3,181.5,2401.6,322.4,3781.1,124.0,391.4,2441.8,3843.3,97,60.5
0.027383,396.2,158.9,2422.0,263.2,3776.1,99.9,389.3,2439.5,3832.3,98.7,61.7
0.029383,387.3,148.2,2424.4,223.8,3777.4,85.5,386,2435.9,3814.7,100.6,62.7
0.031383,379.9,145.4,2419.7,192.5,3781.5,78.2,381.5,2431.4,3791.8,102.7,63.4
0.033383,373.0,144.6,2420.7,165.0,3785.6,85.0,376.1,2426.4,3765,104.8,64.1
0.035383,364.5,124.5,2434.6,141.0,3777.3,133.7,370,2421.4,3736.2,107,64.9
0.037383,356.9,92.0,2440.4,112.7,3718.7,188.4,363.5,2416.9,3707.2,109.3,65.8
0.039383,348.6,72.2,2437.7,88.9,3682.4,160.1,356.9,2413.5,3679.8,111.7,66.9
0.041383,341.4,63.9,2431.6,72.9,3673.7,139.2,350.4,2411.5,3655.8,114.1,67.9
0.043383,336.8,62.7,2425.8,62.0,3670.6,128.5,344.3,2411.2,3636.6,116.5,68.8
0.045383,335.9,65.2,2424.4,56.7,3668.1,133.9,338.8,2412.7,3623.1,119,69.6
0.047383,337.2,65.7,2431.3,59.2,3664.5,174.7,334.1,2416,3616,121.5,70.4
0.049383,336.2,62.4,2441.3,68.6,3658.8,258.7,330.3,2420.9,3615.3,123.9,71.2
0.051383,333.0,58.3,2445.0,82.2,3697.1,258.9,327.5,2427,3620.5,126.3,71.9
0.053383,330.3,57.0,2442.3,92.0,3696.6,214.8,325.8,2433.9,3630.4,128.7,72.7
0.055383,329.1,59.1,2439.6,88.9,3704.4,220.7,325,2441,3643.8,131,73.4
0.057383,328.5,62.8,2440.2,76.6,3684.1,642.2,325.2,2447.6,3658.8,133.2,74
0.059383,328.0,66.4,2441.7,64.7,3599.7,354.3,326.2,2453.2,3673.3,135.3,74.7
0.061383,328.1,71.3,2440.1,57.2,3555.1,241.7,327.9,2457.2,3685,137.3,75.4
0.063383,329.8,80.0,2433.4,56.2,3539.6,180.8,330.1,2459.1,3691.9,139.2,75.9
0.065383,333.2,91.3,2423.0,63.7,3537.1,163.5,332.6,2458.7,3692,141,76.4
0.067383,336.1,98.6,2414.9,80.7,3548.9,179.6,335.3,2455.9,3683.4,142.6,76.9
0.069383,337.6,100.0,2414.8,98.5,3580.2,198.2,338.1,2450.8,3664.9,144.2,77.2
0.071383,339.1,100.9,2420.7,105.5,3610.6,177.2,340.7,2443.6,3635.5,145.6,77.4
0.073383,341.4,103.7,2426.9,107.2,3620.5,153.8,343,2434.7,3595,146.9,77.6
0.075383,343.4,105.6,2431.6,116.0,3617.9,152.8,345.1,2424.9,3543.4,148.2,77.7
0.077383,344.4,105.6,2434.7,136.8,3609.1,176.9,346.8,2414.7,3481.6,149.3,77.8
0.079383,345.3,107.6,2434.9,164.3,3602.1,225.8,348.1,2404.9,3410.7,150.3,77.9
0.081383,346.4,113.4,2429.4,180.5,3538.8,764.7,349,2396.1,3332.4,151.3,77.9
0.083383,347.0,120.0,2422.1,174.8,3439.2,821.6,349.6,2388.9,3248.4,152.2,77.9
0.085383,347.5,124.1,2420.4,166.5,3327.7,1036.4,349.8,2383.8,3161.1,153,77.9
0.087383,348.7,125.7,2422.0,173.1,3084.1,1235.9,349.8,2381,3072.4,153.8,77.9
0.089383,350.3,126.2,2420.6,196.0,2844.4,1109.1,349.6,2380.5,2984.7,154.5,77.9
0.091383,351.8,127.4,2415.0,229.8,2710.1,977.8,349.3,2381.9,2899.8,155.2,77.9
0.093383,353.3,128.2,2405.2,277.2,2613.0,885.1,348.8,2384.7,2819.6,155.8,78
0.095383,353.4,125.7,2384.0,337.6,2560.0,763.4,348.2,2388.1,2745.4,156.5,78.1
0.097383,351.5,121.1,2354.9,362.2,2555.0,694.0,347.5,2391.2,2678.3,157.1,78.3
0.099383,349.4,117.6,2342.5,333.3,2559.6,711.7,346.8,2392.7,2618.8,157.6,78.5
0.101383,347.4,113.8,2335.2,286.8,2568.4,737.1,346,2391.4,2567.4,158.2,78.7
0.103383,345.1,107.8,2322.4,246.2,2576.4,730.6,345,2386.2,2523.8,158.7,78.9
0.105383,342.7,102.2,2309.8,216.5,2574.1,739.8,343.9,2376.1,2487.5,159.2,79.1
0.107383,340.7,97.4,2300.2,195.3,2557.0,794.6,342.6,2360,2458,159.7,79.3
0.109383,338.5,91.8,2293.8,184.0,2522.7,867.6,341.1,2337.4,2434.3,160.2,79.5
0.111383,336.1,85.5,2289.5,182.1,2480.6,915.9,339.3,2308.1,2415.5,160.7,79.6
0.113383,333.9,80.0,2284.8,192.4,2441.1,912.8,337.2,2272.1,2400.6,161.2,79.7
0.115383,331.9,75.4,2274.6,219.0,2405.2,852.2,334.9,2229.9,2388.7,161.6,79.8
0.117383,330.5,71.9,2250.9,258.8,2377.8,759.3,332.4,2182.6,2378.9,162,79.8
0.119383,329.4,70.3,2210.4,297.6,2361.3,665.6,329.8,2131.3,2370.5,162.4,79.9
0.121383,328.0,71.3,2162.1,336.6,2344.9,556.0,327,2077.7,2363.2,162.8,79.8
0.123383,326.1,74.7,2098.2,379.2,2339.9,411.9,324.2,2023.7,2356.6,163.2,79.8
0.125383,324.0,80.4,2033.7,390.4,2340.6,304.1,321.5,1971.3,2350.4,163.5,79.7
0.127383,321.8,88.7,1982.3,409.0,2334.3,236.8,319,1922.5,2344.9,163.9,79.5
0.129383,319.4,99.2,1930.6,465.4,2325.5,188.1,316.8,1879.4,2339.9,164.2,79.4
0.131383,316.9,111.8,1862.2,563.1,2320.3,143.7,314.9,1843.8,2335.8,164.4,79.2
0.133383,314.2,126.0,1775.1,688.1,2321.4,103.9,313.6,1817.2,2332.7,164.7,79
0.135383,311.3,140.5,1687.3,828.2,2325.6,73.9,312.7,1800.7,2330.7,164.9,78.9
0.137383,308.1,152.4,1623.1,992.4,2330.2,54.5,312.4,1795.1,2330.1,165.1,78.7
