time,f1,b1,f2,b2,f3,b3,f1p,f2p,f3p,f0,intensity
0.025651,993.9,475.9,1253.8,363.4,2496.7,416.1,946.6,1261.2,2603.1,0,55.7
0.027651,968.8,445.6,1261.2,307.2,2511.8,400.0,937.2,1260.7,2599.3,0,56.3
0.029651,947.6,429.5,1261.7,264.8,2534.1,407.1,921.9,1259.9,2593.2,0,56.5
0.031651,912.5,430.0,1257.2,222.4,2569.3,455.5,901.4,1258.8,2584.9,0,56.5
0.033651,851.7,411.9,1253.5,171.6,2620.3,577.7,876.4,1257.4,2574.8,0,56.5
0.035651,795.7,339.2,1254.4,117.6,2685.3,887.2,847.8,1255.8,2563.2,0,56.6
0.037651,778.6,299.6,1258.2,90.6,2682.7,1512.0,816.6,1254,2550.4,0,56.8
0.039651,768.9,291.0,1260.5,78.9,2579.1,1677.6,784.1,1252.1,2536.9,0,57
0.041651,745.6,293.3,1259.4,72.8,2509.0,1261.2,751.3,1250.1,2523.2,0,57.3
0.043651,711.2,316.5,1256.7,76.8,2496.6,920.9,719.4,1248,2509.6,0,57.6
0.045651,670.5,341.4,1251.6,95.0,2494.3,710.9,689.5,1246,2496.5,0,58.1
0.047651,646.4,356.0,1243.5,116.6,2491.4,619.2,662.5,1244,2484.3,0,58.7
0.049651,635.5,385.2,1235.1,122.5,2492.0,607.0,639.3,1242.2,2473.3,0,59.5
0.051651,624.6,431.2,1227.2,116.0,2482.9,644.4,620.5,1240.5,2463.7,0,60.4
0.053651,615.4,474.9,1223.3,109.4,2465.5,723.6,606.6,1239,2455.6,0,61.3
0.055651,615.7,504.8,1225.2,109.1,2454.9,840.7,597.7,1237.8,2449.1,0,62
0.057651,621.7,500.7,1231.5,110.9,2441.1,924.6,594,1236.8,2444.3,0,62.6
0.059651,623.3,476.6,1238.1,110.7,2416.7,938.7,595.2,1236.2,2440.9,0,63
0.061651,619.8,446.7,1243.3,110.2,2387.5,913.6,601,1235.9,2438.9,0,63.3
0.063651,618.2,424.0,1245.7,113.4,2371.1,898.2,610.9,1235.9,2438,0,63.4
0.065651,624.3,418.6,1246.0,123.9,2385.3,905.8,624.1,1236.2,2438,0,63.6
0.067651,636.0,438.0,1245.8,144.3,2436.0,835.4,640,1236.9,2438.5,0,63.7
0.069651,647.4,476.9,1246.2,176.0,2460.4,657.2,657.6,1238,2439.3,0,64.1
0.071651,663.5,509.2,1247.7,208.7,2459.3,533.5,676.1,1239.4,2440.1,0,64.8
0.073651,685.9,491.6,1247.4,219.2,2460.2,483.0,694.7,1241.2,2440.5,130.4,65.7
0.075651,712.6,418.7,1244.3,212.7,2459.9,455.6,712.7,1243.3,2440.3,129.8,66.8
0.077651,733.4,324.2,1240.1,196.0,2447.8,431.0,729.2,1245.7,2439.2,129.1,68
0.079651,744.7,250.4,1237.7,174.9,2428.2,407.7,743.8,1248.5,2437.2,128.5,69.3
0.081651,751.1,200.4,1238.4,156.8,2414.3,404.1,756.1,1251.6,2434,127.8,70.4
0.083651,754.5,169.4,1241.2,147.2,2411.8,442.5,765.7,1255,2429.6,127.2,71.5
0.085651,758.5,149.7,1246.5,143.3,2420.1,513.7,772.5,1258.7,2424.1,126.5,72.5
0.087651,765.0,135.2,1256.0,138.3,2444.2,565.0,776.6,1262.7,2417.5,125.8,73.2
0.089651,770.9,125.6,1266.5,130.0,2458.8,553.0,778.1,1267.1,2410,125.1,73.8
0.091651,774.5,124.3,1276.7,123.9,2442.8,530.1,777.2,1271.8,2401.7,124.4,74.3
0.093651,774.5,139.4,1286.2,125.2,2407.3,500.8,774.3,1276.7,2392.9,123.8,74.6
0.095651,771.7,162.9,1293.2,125.8,2380.8,452.6,769.9,1282,2383.8,123.1,74.9
0.097651,768.7,177.3,1297.5,119.1,2366.5,393.2,764.5,1287.5,2374.7,122.5,75.1
0.099651,766.5,181.1,1299.9,112.6,2355.7,329.4,758.4,1293.4,2365.7,121.9,75.2
0.101651,762.6,191.7,1301.6,115.0,2343.2,258.0,752.2,1299.5,2357.2,121.3,75.3
0.103651,756.3,215.9,1303.9,127.7,2333.4,203.1,746.3,1305.9,2349.3,120.8,75.4
0.105651,749.7,235.1,1309.4,134.9,2328.8,174.6,740.8,1312.5,2342.3,120.2,75.4
0.107651,743.5,238.5,1319.2,127.3,2326.8,164.1,736.1,1319.3,2336.2,119.7,75.4
0.109651,737.9,234.4,1329.1,115.2,2324.5,172.4,732.3,1326.4,2331.1,119.3,75.4
0.111651,734.4,231.0,1337.1,110.4,2319.8,206.0,729.3,1333.6,2327,118.8,75.4
0.113651,737.2,225.7,1341.5,113.2,2315.8,250.0,727.1,1340.9,2323.8,118.4,75.4
0.115651,742.5,216.7,1344.3,112.5,2318.7,264.9,725.3,1348.3,2321.6,118,75.4
0.117651,743.2,220.4,1348.9,107.8,2326.1,233.9,723.8,1355.8,2320.1,117.6,75.3
0.119651,733.9,256.5,1358.0,107.3,2327.6,191.6,722,1363.4,2319.2,117.3,75.3
0.121651,710.2,319.9,1370.6,108.0,2323.1,159.1,719.7,1370.8,2318.6,117,75.3
0.123651,682.5,355.0,1381.2,103.6,2317.0,140.0,716.3,1378.3,2318.3,116.7,75.3
0.125651,666.1,337.4,1387.3,98.7,2312.3,132.5,711.6,1385.6,2317.9,116.4,75.3
0.127651,661.0,286.8,1390.1,98.5,2308.9,139.6,705,1392.7,2317.3,116.1,75.3
0.129651,664.1,239.8,1392.4,102.2,2307.4,164.6,696.4,1399.6,2316.2,115.8,75.3
0.131651,669.7,209.9,1398.1,99.9,2309.3,196.6,685.6,1406.3,2314.7,115.6,75.4
0.133651,671.3,196.9,1405.9,89.6,2313.9,213.0,672.4,1412.6,2312.5,115.3,75.4
0.135651,664.8,197.1,1413.6,82.0,2317.4,224.0,656.9,1418.7,2309.6,115.1,75.5
0.137651,649.3,203.2,1423.1,83.3,2318.5,245.6,639.3,1424.4,2305.9,114.9,75.4
0.139651,633.9,199.5,1434.0,91.1,2318.0,264.5,619.9,1429.7,2301.7,114.7,75.4
0.141651,621.6,185.7,1444.5,94.8,2316.7,266.6,599.1,1434.6,2296.9,114.5,75.3
0.143651,607.8,174.6,1451.6,89.9,2311.8,263.8,577.4,1439.1,2291.6,114.3,75.3
0.145651,589.0,172.1,1455.7,86.0,2298.5,275.7,555.5,1443.2,2286.1,114.1,75.2
0.147651,568.2,173.0,1458.5,90.8,2276.3,302.3,534,1446.7,2280.5,113.9,75.1
0.149651,554.3,171.6,1460.6,100.4,2263.8,316.2,513.5,1449.9,2275.1,113.8,75
0.151651,540.4,169.8,1461.1,108.1,2265.8,314.0,494.8,1452.5,2270.1,113.6,75
0.153651,515.3,175.4,1457.9,113.8,2268.9,312.8,478.5,1454.7,2265.6,113.5,74.9
0.155651,474.3,190.6,1450.4,119.4,2260.3,317.7,465.2,1456.4,2262,113.3,74.9
0.157651,424.4,205.4,1442.5,119.0,2242.7,311.8,455.3,1457.6,2259.2,113.2,74.9
0.159651,385.8,212.3,1442.1,112.3,2238.9,295.3,449.2,1458.3,2257.5,113.1,74.9
0.161651,355.5,214.5,1450.8,108.2,2256.8,283.3,447.2,1458.5,2257,113,74.9
