time,f1,b1,f2,b2,f3,b3,f1p,f2p,f3p,f0,intensity
0.025558,435.2,97.0,1525.8,209.5,2568.3,514.6,535.5,1534.1,2525,146.3,76.7
0.027558,481.6,85.4,1528.3,190.7,2550.6,444.1,537.5,1534.8,2525.8,146.7,76.7
0.029558,524.5,71.3,1529.4,179.8,2541.3,394.8,540.8,1536,2527,147.2,76.7
0.031558,557.0,56.3,1529.0,166.6,2532.2,376.1,545.4,1537.5,2528.2,147.7,76.9
0.033558,576.2,45.1,1530.7,146.6,2516.9,370.3,551.3,1539.2,2529.3,148.2,77.1
0.035558,588.2,39.2,1536.9,123.4,2498.3,367.3,558.5,1540.9,2530,148.8,77.4
0.037558,596.6,39.2,1544.2,105.5,2485.7,380.1,566.8,1542.5,2529.8,149.3,77.6
0.039558,606.5,44.2,1551.9,94.0,2486.8,410.2,576.3,1543.7,2528.4,150,77.8
0.041558,618.9,52.3,1560.0,89.0,2503.1,437.3,586.9,1544.4,2525.6,150.6,78
0.043558,632.0,61.3,1566.4,90.5,2525.0,473.2,598.4,1544.4,2521.1,151.3,78.1
0.045558,645.3,70.7,1569.0,97.5,2551.8,525.3,610.8,1543.5,2514.9,152,78.3
0.047558,656.1,77.6,1564.8,104.8,2559.0,548.8,624,1541.7,2507,152.7,78.4
0.049558,663.5,82.6,1552.2,109.2,2530.5,521.5,637.7,1538.7,2497.6,153.5,78.6
0.051558,666.9,87.1,1533.4,107.4,2489.1,457.2,651.9,1534.6,2486.8,154.3,78.7
0.053558,668.1,89.4,1515.3,99.8,2459.6,393.3,666.3,1529.3,2475.2,155.1,78.8
0.055558,669.7,88.2,1501.2,90.5,2439.4,345.3,680.7,1522.8,2463.2,155.9,78.9
0.057558,672.8,85.8,1491.9,84.6,2424.6,323.9,695,1515.4,2451.4,156.8,79
0.059558,678.8,85.0,1484.3,82.0,2413.1,324.5,709,1507,2440.7,157.6,79.1
0.061558,688.2,85.6,1478.7,81.3,2409.1,338.3,722.3,1497.9,2431.5,158.5,79.2
0.063558,699.4,85.9,1475.1,82.3,2410.8,354.4,735,1488.2,2424.8,159.3,79.3
0.065558,712.3,85.6,1472.4,86.3,2411.5,371.3,746.7,1478.2,2421,160.2,79.3
0.067558,726.5,86.5,1470.3,94.4,2409.6,392.0,757.3,1468.1,2420.8,161,79.3
0.069558,743.6,89.5,1468.0,109.1,2411.3,429.8,766.7,1458.1,2424.6,161.8,79.3
0.071558,761.2,94.4,1464.7,130.2,2424.7,491.1,774.7,1448.6,2432.6,162.6,79.2
0.073558,776.4,101.1,1459.0,150.9,2452.7,562.8,781.4,1439.7,2445,163.3,79.1
0.075558,790.3,112.0,1449.5,162.7,2499.1,635.3,786.6,1431.6,2461.7,164,79
0.077558,801.9,126.7,1438.3,159.4,2553.4,689.6,790.4,1424.5,2482.3,164.7,78.9
0.079558,812.4,145.6,1426.0,146.2,2600.6,712.0,792.8,1418.5,2506.3,165.3,78.8
0.081558,821.8,167.2,1414.3,130.2,2619.6,690.2,793.9,1413.8,2533.1,165.9,78.7
0.083558,828.7,190.8,1405.7,114.1,2616.3,646.2,793.6,1410.2,2561.9,166.4,78.6
0.085558,830.9,217.6,1401.5,96.3,2607.6,605.3,792.3,1407.9,2591.6,166.8,78.5
0.087558,826.4,238.6,1401.1,80.7,2604.8,585.6,789.9,1406.6,2621.3,167.2,78.4
0.089558,814.9,245.2,1402.1,68.3,2609.2,587.8,786.6,1406.4,2649.9,167.5,78.2
0.091558,797.2,232.9,1402.8,61.0,2614.5,616.7,782.7,1407,2676.3,167.7,78
0.093558,777.5,211.5,1402.4,58.9,2611.5,680.9,778.1,1408.2,2699.5,167.8,77.8
0.095558,758.9,189.9,1401.2,62.4,2596.7,804.6,773.2,1409.7,2718.7,167.8,77.5
0.097558,746.6,174.7,1400.2,71.6,2572.7,985.9,767.9,1411.3,2733.2,167.8,77.2
0.099558,739.9,162.9,1401.3,86.3,2576.6,1258.5,762.5,1412.7,2742.4,167.6,76.9
0.101558,736.0,148.5,1406.9,99.6,2683.4,1542.4,757,1413.7,2746,167.4,76.6
0.103558,731.3,132.6,1415.2,105.0,2818.8,1602.1,751.5,1413.8,2743.8,167.1,76.4
0.105558,727.4,122.6,1422.6,105.9,2882.4,1447.7,746,1412.9,2736.1,166.7,76.2
0.107558,726.2,121.2,1425.0,110.5,2878.5,1334.4,740.6,1410.7,2723.1,166.2,76.1
0.109558,726.1,123.0,1422.8,124.6,2843.9,1370.4,735.3,1407,2705.4,165.6,75.9
0.111558,724.2,123.9,1416.8,146.4,2772.5,1448.1,730.1,1401.6,2683.7,165,75.8
0.113558,720.4,126.6,1405.9,159.2,2722.7,1431.2,725,1394.5,2658.9,164.3,75.8
0.115558,715.9,137.0,1387.2,144.5,2696.0,1304.5,719.8,1385.6,2631.9,0,75.7
0.117558,712.6,151.2,1367.4,118.8,2627.9,1070.7,714.7,1374.9,2603.7,0,75.8
0.119558,711.4,158.2,1349.4,101.1,2529.5,779.7,709.5,1362.5,2575.3,0,75.9
0.121558,712.5,154.8,1335.2,97.4,2473.8,573.5,704.2,1348.4,2547.6,0,76.1
0.123558,712.3,149.7,1322.8,105.6,2451.2,474.1,698.8,1332.9,2521.5,0,76.3
0.125558,707.8,146.1,1308.9,116.9,2434.1,416.1,693.3,1316.1,2497.6,0,76.4
0.127558,700.1,145.9,1296.2,122.9,2421.0,381.0,687.7,1298.4,2476.6,0,76.6
0.129558,690.6,148.7,1283.6,124.7,2413.5,361.9,682,1280,2458.8,158,76.7
0.131558,682.1,154.1,1268.2,123.6,2412.0,358.5,676.2,1261.2,2444.4,157.2,76.7
0.133558,676.9,165.9,1248.1,120.2,2412.9,374.2,670.5,1242.5,2433.3,156.4,76.8
0.135558,674.0,191.0,1223.6,114.7,2413.3,418.4,664.9,1224.2,2425.5,155.7,76.9
0.137558,671.1,221.1,1203.6,106.7,2414.9,472.3,659.4,1206.5,2420.7,155,77
0.139558,664.3,235.9,1189.9,93.3,2423.1,494.0,654.3,1190,2418.2,154.4,77.1
0.141558,654.1,222.1,1180.9,78.7,2438.6,456.8,649.6,1174.9,2417.7,153.9,77.3
0.143558,646.0,199.6,1172.2,69.5,2450.5,397.9,645.3,1161.6,2418.6,153.3,77.4
0.145558,641.0,181.6,1161.4,66.3,2451.9,351.6,641.7,1150.2,2420.3,152.9,77.6
0.147558,636.5,165.7,1149.8,66.4,2445.1,326.4,638.8,1141.1,2422.3,152.4,77.7
0.149558,628.6,145.2,1136.5,67.6,2436.1,311.8,636.7,1134.5,2424,152.1,77.7
0.151558,618.4,126.2,1121.9,70.9,2430.0,309.8,635.3,1130.5,2425.2,151.8,77.7
0.153558,609.7,118.7,1106.0,77.5,2426.1,331.9,634.9,1129.1,2425.6,151.5,77.6
