time,f1,b1,f2,b2,f3,b3,f1p,f2p,f3p,f0,intensity
0.025914,308.5,60.3,2332.0,207.8,3068.4,541.0,343.3,2350.7,2988.8,126.7,71.3
0.027914,319.2,58.0,2341.6,180.6,3069.1,544.4,343.6,2350,2988.5,126.3,71.8
0.029914,332.6,57.1,2349.4,159.0,3051.7,574.5,344,2348.7,2988,125.9,72.2
0.031914,342.7,56.1,2353.0,145.7,3007.4,596.6,344.7,2347,2987.3,125.4,72.6
0.033914,347.3,53.6,2350.8,138.3,2970.0,562.7,345.4,2344.9,2986.4,124.9,73
0.035914,350.7,50.0,2344.6,136.2,2962.0,490.9,346.3,2342.5,2985.2,124.3,73.6
0.037914,355.4,46.3,2337.5,143.8,2966.6,432.6,347.2,2340,2983.8,123.8,74.1
0.039914,360.0,42.4,2330.5,154.9,2968.7,414.8,348.2,2337.4,2982.1,123.2,74.6
0.041914,362.5,38.9,2325.0,153.5,2966.7,433.9,349.2,2334.8,2980.1,122.6,75.1
0.043914,363.8,35.5,2323.8,141.3,2970.8,468.1,350.2,2332.3,2977.8,122,75.5
0.045914,364.9,32.4,2327.1,130.2,2986.0,515.9,351.1,2330.1,2975.2,121.3,75.9
0.047914,365.1,30.8,2331.4,126.3,2991.6,565.6,351.9,2328.3,2972.3,120.7,76.2
0.049914,363.9,29.8,2334.0,126.5,2967.3,614.9,352.5,2327,2969,120,76.4
0.051914,362.0,28.0,2334.5,130.5,2912.7,634.4,353,2326.2,2965.4,119.3,76.5
0.053914,360.0,24.9,2334.2,139.9,2863.4,595.1,353.3,2326.2,2961.5,118.6,76.6
0.055914,358.0,22.0,2333.1,145.5,2840.4,525.6,353.4,2326.8,2957.3,117.9,76.6
0.057914,356.2,20.6,2334.1,132.6,2845.1,479.1,353.2,2328.3,2952.8,117.2,76.6
0.059914,354.0,19.7,2337.1,109.9,2863.3,467.3,352.8,2330.5,2948.1,116.5,76.5
0.061914,350.3,18.7,2340.0,89.5,2887.5,478.0,352,2333.6,2943.2,115.8,76.5
0.063914,345.3,18.2,2342.5,80.6,2910.4,489.3,351,2337.4,2938.3,115.1,76.4
0.065914,341.0,18.9,2347.4,81.9,2931.5,485.6,349.7,2342,2933.3,114.4,76.4
0.067914,339.6,19.8,2354.3,85.2,2952.6,479.4,348.1,2347.3,2928.4,113.7,76.3
0.069914,339.9,19.7,2359.4,86.6,2971.7,481.6,346.3,2353.2,2923.6,113,76.2
0.071914,339.2,18.6,2362.7,92.3,2989.0,497.1,344.3,2359.6,2919,112.4,76.1
0.073914,337.0,17.8,2366.9,104.5,3001.2,505.5,342,2366.4,2914.8,111.7,76
0.075914,334.8,17.7,2374.7,113.2,3006.8,492.3,339.5,2373.5,2911.1,111.1,75.9
0.077914,333.6,18.0,2383.3,109.3,3006.1,477.0,337,2380.6,2908,110.5,75.8
0.079914,332.0,18.2,2391.1,105.5,2995.3,484.9,334.3,2387.8,2905.6,109.9,75.6
0.081914,327.8,18.6,2400.2,117.8,2961.1,524.3,331.5,2394.7,2903.9,109.3,75.4
0.083914,323.3,19.5,2407.2,144.5,2910.4,543.4,328.8,2401.4,2903.3,108.8,75.2
0.085914,321.7,20.8,2407.2,159.8,2880.6,509.7,326,2407.5,2903.6,108.3,75
0.087914,322.9,21.3,2403.6,151.3,2883.4,482.9,323.3,2413.1,2905.1,107.8,74.7
0.089914,323.4,21.2,2401.9,141.8,2895.6,507.7,320.8,2417.9,2907.8,107.4,74.4
0.091914,320.2,21.7,2404.2,144.6,2904.9,598.7,318.4,2422,2911.9,106.9,74
0.093914,314.6,23.2,2409.8,146.6,2914.4,691.6,316.1,2425.1,2917.3,106.6,73.6
0.095914,311.0,24.9,2413.3,130.0,2930.8,715.4,314.1,2427.3,2924.1,106.2,73.2
0.097914,311.5,26.4,2413.8,102.7,2947.6,684.8,312.4,2428.5,2932.4,106,72.7
0.099914,313.5,28.5,2414.9,80.2,2957.2,659.9,310.9,2428.6,2942.1,105.7,72.1
0.101914,314.4,33.4,2418.9,68.1,2942.3,671.0,309.6,2427.8,2953.3,105.5,71.4
0.103914,312.5,39.8,2424.5,66.8,2904.4,694.8,308.7,2426.1,2965.9,105.4,70.7
0.105914,310.6,43.9,2425.9,65.5,2876.0,696.1,308,2423.5,2979.9,105.3,70.1
0.107914,311.6,45.3,2421.8,59.5,2877.2,747.7,307.6,2420.1,2995.1,105.2,69.6
0.109914,314.8,48.0,2416.2,53.1,2924.0,925.4,307.5,2416.1,3011.6,105.2,69.2
0.111914,317.9,52.2,2409.9,48.2,3062.6,1097.1,307.7,2411.5,3029.2,105.3,69.1
0.113914,317.6,52.7,2405.0,45.8,3150.7,1059.3,308.1,2406.6,3047.7,105.4,69.2
0.115914,314.7,48.0,2402.2,43.3,3200.4,1089.3,308.7,2401.5,3067,105.5,69.5
0.117914,311.4,41.0,2400.9,43.1,3290.8,1500.4,309.5,2396.3,3086.9,105.7,69.8
0.119914,309.1,34.4,2400.6,51.5,3008.7,2023.9,310.4,2391.2,3107.2,105.9,70.2
0.121914,308.2,30.0,2399.8,76.9,2876.2,1913.0,311.5,2386.4,3127.8,106.2,70.6
0.123914,307.8,28.0,2396.8,110.0,2869.7,1669.2,312.6,2382.1,3148.3,106.5,71.1
0.125914,307.9,26.1,2392.6,125.3,2910.9,1524.3,313.9,2378.3,3168.7,106.9,71.5
0.127914,308.9,23.4,2390.8,115.5,2999.1,1654.0,315.1,2375.3,3188.7,107.3,72
0.129914,311.2,20.9,2388.0,104.3,3173.9,2258.8,316.3,2373.1,3208,107.7,72.4
0.131914,313.7,20.1,2379.7,102.9,3543.0,3703.6,317.5,2371.8,3226.4,108.1,72.8
0.133914,315.0,21.0,2373.0,103.8,3733.2,142.4,318.6,2371.5,3243.7,108.6,73.2
0.135914,316.3,22.0,2376.1,105.6,3741.9,152.8,319.6,2372.2,3259.7,109.1,73.6
0.137914,319.3,22.3,2387.9,118.1,3583.0,2387.6,320.5,2373.9,3274.2,109.5,73.9
0.139914,322.8,22.5,2398.2,140.7,3284.2,1551.0,321.4,2376.6,3287,110,74.2
0.141914,324.4,23.8,2399.7,165.6,3136.3,1244.2,322.1,2380.2,3297.9,110.5,74.4
0.143914,323.3,25.4,2395.6,181.5,3089.8,1216.0,322.7,2384.5,3306.8,111,74.5
0.145914,322.4,26.8,2391.5,189.8,3123.9,1340.3,323.2,2389.6,3313.5,111.5,74.6
0.147914,324.1,28.7,2389.9,196.6,3189.8,1424.5,323.6,2395.1,3317.9,112,74.4
0.149914,327.7,31.5,2391.7,196.2,3196.1,1370.3,324,2400.9,3319.9,112.5,74.2
0.151914,328.9,34.7,2393.1,177.8,3210.2,1229.6,324.3,2406.9,3319.5,112.9,73.9
0.153914,325.5,36.9,2392.2,157.0,3274.3,1062.5,324.6,2412.8,3316.5,113.4,73.5
0.155914,320.1,37.9,2390.9,154.7,3352.9,895.4,325,2418.3,3311.1,113.8,73.2
0.157914,317.1,38.9,2389.7,178.9,3384.1,806.8,325.4,2423.2,3303.2,114.2,72.9
0.159914,317.4,38.9,2386.0,205.1,3365.1,773.6,325.8,2427.3,3292.7,114.5,72.7
0.161914,320.1,35.8,2377.6,207.8,3308.3,703.3,326.4,2430.4,3279.9,114.9,72.7
0.163914,325.1,31.8,2369.3,194.1,3248.6,589.7,327.2,2432.1,3264.8,115.2,72.8
0.165914,331.1,29.0,2366.4,192.7,3213.2,493.5,328.1,2432.4,3247.5,115.5,73.1
0.167914,334.3,27.3,2374.8,228.8,3211.0,479.9,329.3,2431.1,3228,115.7,73.4
0.169914,335.1,25.2,2398.3,311.2,3219.9,550.4,330.7,2427.9,3206.7,116,73.9
0.171914,336.8,22.2,2446.4,458.5,3215.7,735.9,332.3,2422.8,3183.6,116.2,74.2
0.173914,340.4,19.6,2532.9,650.9,3159.7,1148.0,334.3,2415.6,3158.9,116.3,74.6
0.175914,344.4,18.3,2612.3,687.6,3047.1,2036.9,336.5,2406.4,3132.9,116.5,74.9
0.177914,346.8,18.3,2509.7,580.7,3215.3,2193.0,339,2395.2,3105.8,116.6,75.1
0.179914,348.6,18.1,2422.0,436.2,3185.4,1777.9,341.9,2381.9,3077.8,116.7,75.3
0.181914,350.7,17.2,2374.6,418.3,2983.6,1234.4,344.9,2366.8,3049,116.8,75.5
0.183914,353.0,17.2,2322.2,442.1,2917.6,832.9,348.3,2349.8,3019.9,116.8,75.6
0.185914,355.3,18.2,2287.3,434.7,2921.2,670.6,351.9,2331.2,2990.6,116.8,75.6
0.187914,357.5,19.0,2270.1,394.0,2942.0,628.5,355.7,2311.2,2961.3,116.8,75.6
0.189914,359.6,19.9,2248.3,317.6,2950.0,594.4,359.6,2290.1,2932.4,116.8,75.6
0.191914,361.1,21.8,2224.0,241.8,2927.4,562.8,363.6,2268.1,2904,116.8,75.5
0.193914,361.8,24.2,2209.6,199.4,2898.3,556.1,367.8,2245.6,2876.4,116.7,75.4
0.195914,363.4,26.7,2201.3,180.1,2875.8,545.4,371.9,2222.8,2849.8,116.7,75.3
0.197914,366.2,30.1,2194.4,184.3,2854.7,504.4,376,2200.1,2824.5,116.6,75.2
0.199914,368.1,36.4,2184.9,213.6,2832.7,459.5,379.9,2177.9,2800.6,116.5,75.1
0.201914,368.6,43.9,2171.1,257.1,2813.5,436.8,383.7,2156.5,2778.4,116.4,75
0.203914,369.9,47.4,2157.5,283.8,2801.8,437.3,387.3,2136.3,2758,116.3,74.9
0.205914,374.4,47.8,2145.0,285.2,2792.5,451.1,390.7,2117.6,2739.6,116.2,74.8
0.207914,381.8,50.9,2130.7,266.4,2773.7,469.9,393.6,2100.6,2723.3,116.1,74.7
0.209914,390.8,57.8,2113.9,241.7,2736.7,471.5,396.3,2085.8,2709.3,116,74.7
0.211914,400.9,62.9,2095.7,218.6,2696.1,424.6,398.5,2073.3,2697.7,115.9,74.8
0.213914,409.2,63.7,2078.3,210.5,2670.6,372.2,400.2,2063.3,2688.6,115.8,74.8
0.215914,415.9,64.8,2053.7,241.3,2646.2,369.9,401.5,2056.1,2682,115.7,74.9
0.217914,421.4,68.1,2016.2,325.1,2611.4,433.6,402.3,2051.7,2678.1,115.6,75
0.219914,426.7,68.3,1980.9,421.4,2573.2,530.7,402.5,2050.2,2676.7,115.5,75
