time,f1,b1,f2,b2,f3,b3,f1p,f2p,f3p,f0,intensity
0.025023,419.9,40.2,2174.5,180.0,2691.4,275.2,398.7,2213.9,2697.7,148.4,78.2
0.027023,415.1,52.0,2196.3,164.0,2707.2,243.8,396.8,2215.9,2702.8,148.7,77.8
0.029023,409.6,70.8,2213.9,145.1,2720.2,214.7,393.7,2219.2,2711.1,149.1,77.4
0.031023,400.7,90.8,2228.8,125.3,2733.0,197.7,389.5,2223.8,2722.3,149.4,77
0.033023,387.5,102.9,2241.7,109.6,2746.0,197.0,384.2,2229.5,2736.1,149.8,76.7
0.035023,372.7,104.8,2251.9,98.1,2757.6,204.8,378,2236.3,2752,150.2,76.6
0.037023,359.0,99.5,2259.6,88.6,2767.7,210.7,371.1,2243.9,2769.4,150.5,76.5
0.039023,347.3,91.5,2266.7,80.2,2778.8,211.9,363.6,2252.2,2787.9,150.9,76.5
0.041023,337.2,84.3,2274.5,72.5,2792.0,212.3,355.7,2261,2806.7,151.3,76.5
0.043023,329.3,77.8,2281.7,65.2,2805.8,216.3,347.5,2270.2,2825.4,151.6,76.5
0.045023,323.8,71.6,2288.0,58.4,2821.1,226.9,339.4,2279.6,2843.5,152,76.5
0.047023,319.2,67.0,2294.7,52.6,2841.4,245.6,331.4,2288.9,2860.3,152.3,76.6
0.049023,314.7,63.5,2302.0,48.3,2867.2,270.8,323.7,2298.1,2875.6,152.7,76.5
0.051023,310.9,59.4,2308.8,46.1,2897.3,306.5,316.5,2306.9,2888.9,153,76.5
0.053023,307.9,55.9,2313.6,46.5,2925.7,350.4,309.9,2315.3,2900.1,153.4,76.4
0.055023,304.3,53.6,2316.6,48.7,2942.8,386.9,304.1,2323,2908.9,153.7,76.3
0.057023,300.2,50.7,2317.4,50.5,2940.6,395.3,299.1,2330,2915.5,154,76.1
0.059023,298.1,46.6,2317.1,50.6,2927.6,374.8,295,2336.2,2919.7,154.3,75.9
0.061023,298.2,43.8,2318.5,50.6,2916.4,348.6,291.9,2341.5,2921.9,154.5,75.7
0.063023,299.0,44.2,2324.5,52.8,2911.2,342.9,289.7,2346,2922.1,154.8,75.5
0.065023,299.8,47.3,2335.7,57.7,2911.5,364.7,288.4,2349.4,2920.9,155,75.3
0.067023,301.0,50.1,2349.2,63.5,2917.0,402.9,287.9,2352,2918.5,155.3,75.2
0.069023,301.2,49.5,2359.9,67.9,2922.2,450.0,288.3,2353.7,2915.3,155.5,75.1
0.071023,299.7,45.6,2365.4,70.7,2918.6,519.5,289.4,2354.6,2911.7,155.6,75.1
0.073023,297.5,41.2,2368.2,72.5,2905.8,625.3,291.1,2354.7,2908.1,155.8,75
0.075023,296.6,37.8,2370.6,75.3,2889.4,740.7,293.3,2354.2,2905,155.9,75
0.077023,297.5,35.0,2372.2,83.6,2879.5,771.0,295.9,2353.1,2902.6,156,75.1
0.079023,299.7,32.4,2371.5,98.0,2885.0,702.3,298.6,2351.6,2901.1,156.1,75.1
0.081023,301.7,30.1,2366.3,112.2,2896.5,623.5,301.5,2349.7,2900.8,156.2,75.2
0.083023,303.1,28.1,2355.2,121.3,2905.2,574.3,304.3,2347.5,2901.7,156.2,75.3
0.085023,304.0,26.9,2341.2,124.6,2913.1,551.8,306.9,2345.1,2903.9,156.3,75.3
0.087023,304.0,26.2,2330.7,124.6,2918.9,553.7,309.2,2342.7,2907.3,156.3,75.4
0.089023,303.2,25.4,2326.5,122.0,2921.5,577.7,311.2,2340.3,2911.7,156.3,75.4
0.091023,302.8,24.4,2326.0,117.2,2922.7,606.0,312.7,2337.9,2916.9,156.2,75.4
0.093023,303.3,23.6,2325.3,113.1,2924.0,612.5,313.7,2335.5,2922.6,156.2,75.3
0.095023,304.3,23.4,2323.1,113.3,2927.4,593.4,314.3,2333.3,2928.5,156.1,75.2
0.097023,305.4,24.0,2320.6,118.4,2932.5,566.3,314.3,2331.2,2934.3,156,75.1
0.099023,306.3,24.7,2319.5,122.5,2938.7,540.5,313.8,2329.2,2939.5,155.9,75
0.101023,306.7,24.8,2320.7,116.2,2944.9,518.5,312.9,2327.2,2943.8,155.7,74.9
0.103023,307.1,24.1,2322.0,100.4,2946.6,491.9,311.7,2325.2,2946.9,155.6,74.8
0.105023,308.1,23.4,2322.9,85.2,2942.9,457.7,310.1,2323.1,2948.5,155.4,74.7
0.107023,309.3,23.5,2325.7,75.2,2941.0,424.5,308.4,2320.9,2948.3,155.2,74.7
0.109023,310.8,24.2,2330.4,69.9,2944.1,395.9,306.6,2318.5,2946.3,155,74.7
0.111023,312.3,25.0,2333.4,67.0,2947.0,369.8,304.8,2315.7,2942.3,154.8,74.7
0.113023,313.1,24.5,2331.4,64.1,2945.1,347.5,303.2,2312.6,2936.3,154.5,74.8
0.115023,312.9,23.1,2324.7,60.5,2939.5,328.5,302,2308.8,2928.4,154.3,74.9
0.117023,312.5,21.9,2315.5,57.2,2932.4,311.9,301.1,2304.6,2918.8,154,75.1
0.119023,311.8,21.0,2304.2,54.3,2921.7,299.9,300.8,2299.6,2907.6,153.8,75.3
0.121023,310.9,20.0,2290.8,50.9,2903.8,293.4,301,2293.9,2895.2,153.5,75.5
0.123023,310.5,18.9,2277.5,47.3,2879.0,287.6,302,2287.4,2881.9,153.2,75.7
0.125023,310.6,18.2,2266.9,44.9,2853.6,277.1,303.8,2280.2,2868,152.9,75.9
0.127023,310.9,18.1,2258.3,44.9,2831.4,259.5,306.3,2272.1,2854,152.7,76
0.129023,311.5,18.6,2249.8,46.5,2813.5,235.0,309.6,2263.3,2840.1,152.4,76.1
0.131023,312.5,19.7,2241.7,48.0,2802.0,212.0,313.8,2253.7,2826.7,152.1,76.2
0.133023,313.6,21.3,2236.0,49.7,2796.8,198.2,318.6,2243.5,2814.2,151.8,76.1
0.135023,314.6,24.4,2231.5,54.3,2795.0,192.0,324.2,2232.8,2802.8,151.6,75.9
0.137023,316.1,29.3,2225.2,63.8,2794.7,188.2,330.4,2221.6,2792.7,151.3,75.6
0.139023,319.5,36.0,2214.6,77.3,2795.0,187.7,337.1,2210.1,2784,151.1,75.2
0.141023,326.9,45.5,2198.7,92.0,2793.5,199.0,344.2,2198.4,2776.9,150.9,74.7
0.143023,337.7,58.7,2183.1,100.6,2788.4,222.9,351.5,2186.8,2771.3,150.7,74.1
0.145023,351.4,74.2,2173.2,97.7,2782.4,245.0,358.9,2175.3,2767.1,150.5,73.5
0.147023,366.5,83.5,2169.7,88.1,2780.0,251.6,366.2,2164.3,2764.3,150.3,73
0.149023,380.4,81.3,2168.4,81.9,2780.4,245.9,373.3,2153.8,2762.7,150.1,72.6
0.151023,388.3,74.9,2165.0,83.1,2780.9,234.8,380,2144,2762,150,72.5
0.153023,389.9,71.4,2156.1,86.2,2779.8,220.0,386.2,2135.1,2762.1,149.9,72.5
0.155023,390.6,71.8,2142.9,85.1,2776.1,203.7,391.7,2127.3,2762.6,149.8,72.6
0.157023,394.1,75.4,2129.9,81.4,2769.3,188.4,396.3,2120.7,2763.5,149.7,72.8
0.159023,399.6,78.8,2118.5,78.7,2760.3,174.2,400.1,2115.5,2764.4,149.6,73
0.161023,405.2,80.0,2105.7,78.6,2750.7,165.1,402.8,2111.7,2765.2,149.5,73.2
0.163023,411.9,81.3,2089.7,82.9,2739.6,164.4,404.5,2109.3,2765.7,149.5,73.3
0.165023,420.0,84.0,2070.7,91.5,2726.5,168.8,405.1,2108.6,2765.9,149.5,73.4
