time,f1,b1,f2,b2,f3,b3,f1p,f2p,f3p,f0,intensity
0.025610,370.2,140.3,1622.5,94.3,2478.9,120.9,448.6,1638.1,2515.7,120,73.9
0.027610,406.8,167.9,1623.5,102.5,2488.4,114.2,455.1,1637.7,2514.9,120,73.9
0.029610,456.8,186.1,1630.4,110.8,2500.4,108.5,465.6,1637,2513.7,120,74
0.031610,499.6,180.2,1638.2,105.6,2511.9,96.9,479.7,1635.9,2512.1,120,74.1
0.033610,528.0,163.4,1641.8,92.2,2521.3,86.4,496.6,1634.4,2510.2,120,74.3
0.035610,551.0,150.3,1641.4,82.7,2528.6,85.7,515.7,1632.2,2508.1,120,74.5
0.037610,573.9,146.6,1639.1,81.7,2533.1,98.8,536.1,1629.3,2506,120,74.7
0.039610,592.9,143.9,1635.7,82.0,2533.9,117.0,557.2,1625.5,2503.9,120,74.9
0.041610,605.7,133.6,1630.8,76.5,2531.5,126.7,578,1620.7,2502.1,120.1,75.2
0.043610,615.5,119.8,1623.6,70.0,2525.3,129.4,598,1614.9,2500.6,120.1,75.4
0.045610,625.3,109.9,1612.9,70.7,2511.7,135.5,616.4,1608,2499.5,120.1,75.6
0.047610,633.5,103.1,1598.9,77.5,2491.5,145.1,633,1600,2498.8,120.2,75.8
0.049610,638.3,95.4,1585.8,80.6,2474.5,150.6,647.4,1590.9,2498.8,120.2,75.9
0.051610,641.7,89.7,1576.1,77.1,2468.7,152.3,659.5,1580.7,2499.2,120.3,76
0.053610,647.0,92.9,1565.6,75.7,2474.8,152.0,669.4,1569.6,2500.2,120.4,76
0.055610,655.8,105.6,1550.5,81.7,2487.5,144.0,677.2,1557.8,2501.6,120.5,76
0.057610,664.7,115.4,1536.3,88.1,2496.9,129.7,683.4,1545.3,2503.4,120.5,75.9
0.059610,671.2,120.0,1526.4,89.1,2502.9,118.9,688.2,1532.5,2505.5,120.7,75.9
0.061610,676.6,130.0,1517.0,87.7,2508.7,120.2,692.1,1519.6,2507.7,120.8,75.9
0.063610,684.3,151.7,1505.5,88.1,2516.3,134.1,695.6,1506.7,2509.8,120.9,75.9
0.065610,695.0,172.7,1495.5,88.8,2522.1,146.0,699.1,1494.1,2511.7,121.1,75.9
0.067610,706.1,183.7,1487.4,89.0,2521.9,147.6,702.9,1482.1,2513.2,121.3,75.9
0.069610,716.2,195.4,1476.3,91.5,2517.7,150.6,707.2,1470.9,2514.1,121.5,75.9
0.071610,725.8,218.4,1460.1,97.6,2514.1,167.0,712.1,1460.4,2514.4,121.7,75.9
0.073610,734.3,243.3,1446.2,101.3,2514.4,189.6,717.7,1451,2513.8,121.9,75.9
0.075610,741.4,256.3,1440.1,99.2,2516.6,198.8,723.7,1442.7,2512.4,122.2,75.9
0.077610,746.6,264.6,1437.6,95.4,2516.9,195.3,729.9,1435.4,2510,122.5,75.9
0.079610,749.2,276.4,1434.3,92.4,2512.0,193.5,736.1,1429.2,2506.7,122.8,75.9
0.081610,750.0,285.5,1429.7,87.6,2501.7,196.6,741.8,1423.9,2502.4,123.2,75.9
0.083610,750.6,286.0,1426.0,81.1,2492.9,197.0,746.7,1419.4,2497.3,123.5,75.9
0.085610,749.8,285.1,1421.8,77.3,2487.6,197.0,750.4,1415.7,2491.5,123.9,75.8
0.087610,746.0,290.0,1415.3,82.0,2483.1,205.0,752.5,1412.5,2485.1,124.3,75.8
0.089610,741.1,299.7,1406.6,95.2,2476.3,220.3,752.8,1409.5,2478.3,124.7,75.7
0.091610,737.8,310.4,1399.6,105.2,2468.5,234.3,751.4,1406.7,2471.4,125.2,75.6
0.093610,734.9,326.7,1397.3,103.4,2461.6,251.1,748,1403.8,2464.5,125.6,75.5
0.095610,731.3,357.9,1397.4,99.2,2454.9,280.3,743,1400.6,2457.8,126.1,75.4
0.097610,729.5,395.4,1397.0,102.6,2450.2,310.7,736.6,1396.9,2451.7,126.6,75.3
0.099610,729.6,415.1,1395.5,112.6,2450.8,319.9,729.2,1392.6,2446.3,127.1,75.1
0.101610,726.4,415.8,1391.7,125.7,2455.6,313.7,721.4,1387.5,2441.8,127.6,74.9
0.103610,716.9,412.8,1382.8,139.9,2458.5,306.4,713.5,1381.8,2438.4,128.1,74.7
0.105610,704.5,415.6,1368.9,144.8,2452.7,299.9,706.3,1375.2,2436.1,128.6,74.6
0.107610,695.1,416.2,1357.8,130.5,2438.1,295.8,700.2,1367.8,2435,129.1,74.5
0.109610,692.3,399.7,1351.5,108.2,2416.3,300.5,695.7,1359.7,2435.2,129.6,74.5
0.111610,694.7,369.0,1345.7,92.7,2393.1,311.2,693.2,1351,2436.6,130.1,74.5
0.113610,697.6,350.9,1339.7,85.4,2383.1,313.2,693,1341.8,2439.2,130.6,74.5
0.115610,699.7,379.0,1335.8,86.6,2402.9,301.8,695,1332.3,2442.7,131,74.5
0.117610,702.8,481.6,1332.4,98.7,2442.4,286.3,699.4,1322.7,2447,131.5,74.5
0.119610,709.7,674.4,1324.1,121.2,2480.5,275.1,705.7,1313.1,2452,131.9,74.4
0.121610,720.2,938.2,1310.7,144.7,2508.5,273.3,713.7,1303.8,2457.4,132.3,74.4
0.123610,732.0,1217.7,1299.2,163.3,2525.8,275.9,722.9,1295,2463,132.7,74.3
0.125610,752.7,1407.2,1292.6,185.9,2527.0,269.0,732.6,1286.9,2468.4,133.1,74.1
0.127610,768.8,1370.7,1287.5,217.9,2508.3,246.8,742.3,1279.7,2473.5,133.4,73.9
0.129610,755.6,1179.7,1281.5,247.8,2480.7,219.1,751.2,1273.5,2478,133.8,73.7
0.131610,734.7,997.7,1275.8,275.0,2460.0,196.7,758.9,1268.6,2481.8,134.1,73.5
0.133610,732.1,903.7,1269.3,333.6,2453.5,184.0,764.8,1265,2484.6,134.3,73.2
0.135610,752.5,888.9,1257.0,449.5,2453.8,180.1,768.5,1262.7,2486.3,134.6,72.9
0.137610,780.0,955.1,1224.6,594.3,2447.5,177.2,769.8,1262,2486.9,134.9,72.5
