time,f1,b1,f2,b2,f3,b3,f1p,f2p,f3p,f0,intensity
0.025592,403.1,393.2,1125.8,234.9,2338.6,80.2,439.8,1222.4,2337.9,114.6,75
0.027592,416.3,416.6,1179.1,220.7,2345.7,119.7,441.7,1229.9,2340.2,114.7,74.8
0.029592,431.5,434.7,1230.3,218.5,2355.2,163.8,444.6,1242.3,2343.9,114.9,74.6
0.031592,444.1,447.4,1266.8,227.8,2360.7,194.6,448.5,1259.4,2349,115,74.5
0.033592,452.7,468.8,1293.3,251.6,2362.9,218.4,453.1,1280.8,2355.1,115.1,74.5
0.035592,467.2,477.0,1330.3,288.5,2363.7,257.2,458.1,1306.4,2362.2,115.2,74.4
0.037592,489.0,421.7,1386.7,296.1,2365.0,304.2,463.3,1335.8,2369.9,115.3,74.5
0.039592,502.3,344.7,1433.5,253.6,2367.7,322.8,468.3,1368.5,2378,115.5,74.5
0.041592,505.1,295.4,1457.1,206.1,2371.1,307.8,472.9,1404.2,2386.3,115.6,74.5
0.043592,500.9,270.2,1474.9,174.8,2379.3,279.4,476.7,1442.4,2394.5,115.7,74.5
0.045592,491.4,254.9,1500.7,158.6,2392.3,247.5,479.4,1482.7,2402.6,115.8,74.4
0.047592,480.6,235.5,1534.7,148.8,2403.6,217.9,480.9,1524.8,2410.2,116,74.3
0.049592,473.0,218.8,1564.7,140.7,2410.5,200.4,480.9,1568.1,2417.5,116.1,74.3
0.051592,468.2,223.1,1590.3,144.7,2417.4,206.5,479.3,1612.3,2424.3,116.3,74.2
0.053592,464.3,250.0,1626.0,172.3,2429.0,241.8,476.1,1657.2,2430.7,116.4,74.2
0.055592,462.2,275.0,1679.8,220.9,2444.8,294.9,471.3,1702.4,2436.8,116.5,74.3
0.057592,461.5,281.9,1736.2,268.4,2458.5,343.3,464.9,1747.6,2442.8,116.7,74.3
0.059592,457.5,287.6,1775.0,307.8,2462.8,379.2,457.2,1792.7,2448.8,116.8,74.3
0.061592,446.1,300.6,1803.0,351.7,2459.3,423.8,448.2,1837.4,2455.1,117,74.4
0.063592,428.3,310.0,1847.7,403.8,2457.3,529.6,438.3,1881.5,2462.1,117.1,74.4
0.065592,415.2,298.4,1911.0,416.9,2474.7,707.3,427.6,1925,2469.8,117.3,74.5
0.067592,406.9,274.0,1957.3,404.0,2510.7,798.9,416.6,1967.6,2478.7,117.4,74.5
0.069592,398.0,247.3,1997.8,443.6,2508.0,655.4,405.4,2009.3,2488.9,117.6,74.6
0.071592,388.4,210.7,2062.9,493.5,2489.5,462.6,394.3,2049.9,2500.8,117.7,74.6
0.073592,380.7,169.0,2139.2,455.9,2494.4,377.8,383.6,2089.2,2514.4,117.9,74.7
0.075592,375.3,144.0,2184.7,382.5,2515.5,359.3,373.5,2127.2,2529.8,118,74.7
0.077592,369.7,133.9,2207.0,338.5,2538.0,365.0,364.3,2163.6,2547.2,118.2,74.7
0.079592,362.9,125.8,2223.0,322.6,2560.3,383.9,356,2198.2,2566.5,118.3,74.6
0.081592,356.4,113.4,2235.4,329.7,2577.9,396.9,348.7,2231,2587.5,118.5,74.6
0.083592,351.8,102.1,2238.2,345.7,2588.9,388.7,342.5,2261.8,2610.2,118.6,74.6
0.085592,347.7,96.3,2238.7,345.8,2610.9,381.7,337.3,2290.2,2634.4,118.8,74.6
0.087592,342.6,94.5,2253.9,332.5,2660.2,396.6,333.1,2316.3,2659.7,118.9,74.5
0.089592,336.2,91.7,2291.1,330.3,2727.9,423.5,329.8,2339.8,2685.8,119.1,74.4
0.091592,330.5,88.2,2343.5,343.1,2776.8,472.6,327.2,2360.7,2712.5,119.2,74.3
0.093592,326.3,88.4,2395.2,354.3,2800.7,572.3,325.2,2378.8,2739.4,119.3,74.2
0.095592,323.2,92.8,2439.3,355.1,2798.8,769.4,323.6,2394,2766.2,119.4,74.1
0.097592,321.0,96.2,2466.0,323.2,2776.1,1119.6,322.2,2406.5,2792.5,119.5,73.9
0.099592,318.9,92.0,2463.5,285.5,2719.5,1457.9,320.9,2416.2,2818.1,119.6,73.8
0.101592,316.2,85.2,2451.0,258.8,2685.2,1609.1,319.5,2423.2,2842.6,119.6,73.6
0.103592,313.3,83.4,2438.8,233.1,2761.6,1714.5,317.9,2427.8,2866,119.7,73.5
0.105592,310.8,84.3,2429.0,210.7,2949.6,1699.1,316,2430,2888.1,119.7,73.5
0.107592,308.5,79.6,2419.5,199.0,3051.2,1379.7,313.8,2430.3,2908.8,119.8,73.4
0.109592,305.9,69.6,2407.7,196.2,3015.5,1108.2,311.1,2428.7,2928,119.8,73.3
0.111592,302.5,61.5,2393.8,200.2,2968.2,907.8,308.1,2425.8,2945.8,119.8,73.1
0.113592,298.5,58.5,2380.1,203.6,2951.5,738.1,304.8,2421.8,2962.2,119.8,72.9
0.115592,294.5,59.3,2374.1,196.6,2966.2,632.4,301.3,2417.1,2977.4,119.7,72.7
0.117592,291.7,58.4,2377.4,182.7,2987.9,596.6,297.5,2411.9,2991.4,119.7,72.4
0.119592,290.5,56.6,2385.5,171.3,2997.0,614.7,293.7,2406.7,3004.5,119.6,72.2
0.121592,289.8,57.7,2396.1,163.9,2989.6,656.4,289.9,2401.7,3016.7,119.5,71.9
0.123592,289.3,62.1,2405.6,156.3,2988.0,688.4,286.2,2397.1,3028.3,119.4,71.7
0.125592,288.8,66.8,2413.3,145.5,3028.3,700.9,282.8,2393.2,3039.3,119.3,71.5
0.127592,287.9,70.9,2420.6,139.5,3086.9,664.3,279.7,2390.1,3049.8,119.1,71.3
0.129592,285.4,75.4,2428.0,151.1,3095.1,598.8,276.9,2387.8,3059.9,119,71.1
0.131592,281.3,79.4,2432.7,176.4,3068.7,537.6,274.6,2386.5,3069.7,118.8,70.9
0.133592,277.5,79.2,2429.2,193.2,3057.5,491.5,272.7,2386,3079.1,118.7,70.8
0.135592,275.8,74.7,2413.0,191.6,3065.1,450.1,271.2,2386.3,3088.1,118.5,70.6
0.137592,275.4,71.4,2384.6,168.9,3077.8,388.9,270.2,2387.3,3096.6,118.3,70.3
0.139592,275.4,72.7,2361.9,131.1,3088.5,328.4,269.5,2388.7,3104.6,118.2,70.1
0.141592,274.9,75.7,2358.1,100.1,3099.5,299.2,269.1,2390.5,3111.8,118,69.8
0.143592,273.5,78.0,2366.3,83.2,3121.3,288.5,268.9,2392.5,3118.2,117.8,69.5
0.145592,271.2,87.3,2379.6,81.3,3151.2,272.4,268.9,2394.4,3123.7,117.6,69.2
0.147592,267.9,111.0,2392.1,99.6,3162.2,261.1,268.9,2396,3128.1,117.5,69
0.149592,262.5,141.6,2399.2,137.5,3150.9,265.0,269,2397.3,3131.3,117.3,68.8
0.151592,256.8,161.6,2399.5,180.4,3130.3,268.6,269.1,2398.2,3133.3,117.1,68.6
0.153592,252.6,175.5,2399.1,213.6,3108.5,261.1,269.1,2398.5,3133.9,117,68.4
