time,f1,b1,f2,b2,f3,b3,f1p,f2p,f3p,f0,intensity
0.025615,369.7,263.9,1174.0,274.3,2324.3,71.9,414.2,1221.4,2314.7,121.9,74.8
0.027615,392.2,236.5,1230.7,214.7,2321.6,80.1,415,1233,2318,121.8,74.7
0.029615,413.0,209.3,1277.8,167.7,2321.0,95.0,416.3,1252.1,2323.4,121.7,74.7
0.031615,427.3,194.0,1305.7,144.8,2322.7,114.8,417.9,1278.4,2330.6,121.7,74.7
0.033615,436.3,192.9,1329.5,141.7,2327.8,144.4,419.8,1311.6,2339.5,121.6,74.8
0.035615,440.8,202.8,1361.6,158.1,2336.2,186.0,421.8,1351.1,2349.8,121.5,74.8
0.037615,442.0,206.5,1409.2,185.5,2347.1,227.0,423.7,1396.3,2361.1,121.4,74.9
0.039615,441.7,193.3,1463.2,202.6,2364.3,245.6,425.4,1446.6,2373.1,121.4,74.9
0.041615,440.3,178.6,1510.3,203.1,2391.4,228.2,426.8,1501.1,2385.4,121.3,75
0.043615,436.6,175.2,1551.9,204.4,2418.2,186.0,427.7,1559,2397.8,121.2,75
0.045615,430.0,183.4,1599.1,221.9,2434.4,149.3,427.9,1619.4,2410,121.1,75.1
0.047615,424.5,194.9,1646.6,255.3,2441.3,133.7,427.4,1681.5,2421.7,121,75.1
0.049615,421.9,207.0,1692.2,304.8,2445.4,132.8,426.1,1744.1,2432.9,120.9,75.2
0.051615,419.5,218.9,1751.8,386.4,2449.6,142.9,423.9,1806.4,2443.3,120.8,75.2
0.053615,415.7,214.9,1845.6,493.1,2452.8,162.2,421,1867.5,2453.1,120.7,75.3
0.055615,411.6,185.8,1962.6,552.6,2455.3,184.0,417.2,1926.6,2462.1,120.6,75.3
0.057615,408.3,159.1,2033.5,527.0,2461.4,194.5,412.8,1982.7,2470.5,120.5,75.4
0.059615,404.0,146.8,2063.3,483.6,2471.7,197.5,407.8,2035.2,2478.5,120.3,75.4
0.061615,396.9,141.9,2089.7,458.7,2483.6,207.4,402.3,2083.5,2486.3,120.2,75.4
0.063615,390.0,138.9,2122.7,461.9,2491.6,226.0,396.5,2127,2493.9,120.1,75.4
0.065615,385.9,139.1,2158.2,490.1,2492.0,247.0,390.6,2165.5,2501.6,119.9,75.4
0.067615,382.6,144.3,2193.6,534.2,2487.2,268.9,384.6,2198.8,2509.6,119.8,75.4
0.069615,377.2,151.0,2246.2,572.7,2480.5,312.4,378.8,2226.6,2518.1,119.6,75.4
0.071615,370.8,150.5,2312.4,529.9,2475.8,408.4,373.2,2249.2,2527,119.4,75.3
0.073615,366.6,143.6,2309.6,416.8,2518.0,501.4,368,2266.8,2536.5,119.3,75.3
0.075615,364.9,138.7,2282.1,362.4,2559.7,501.5,363.2,2279.6,2546.6,119.1,75.2
0.077615,364.3,135.8,2261.9,317.0,2594.8,488.6,358.8,2288.2,2557,118.9,75.2
0.079615,362.9,129.9,2252.8,279.3,2624.2,476.7,355,2293.1,2567.7,118.6,75.1
0.081615,359.4,122.4,2249.8,254.8,2639.5,470.9,351.6,2295,2578.3,118.4,75.1
0.083615,354.3,119.2,2249.6,244.3,2640.1,486.7,348.6,2294.4,2588.7,118.2,75.1
0.085615,348.6,120.1,2256.8,245.3,2631.6,540.1,346,2292.1,2598.4,117.9,75
0.087615,344.1,119.6,2277.0,248.2,2618.7,645.8,343.7,2288.8,2607.1,117.6,75
0.089615,342.9,115.2,2299.6,242.7,2608.0,765.3,341.5,2285.1,2614.4,117.4,75
0.091615,342.9,111.6,2309.4,240.3,2591.8,830.6,339.4,2281.4,2620,117.1,74.9
0.093615,341.0,109.7,2308.0,247.0,2566.9,830.7,337.3,2278.4,2623.4,116.8,74.8
0.095615,335.9,104.0,2300.6,251.9,2554.6,789.6,335.2,2276.2,2624.5,116.5,74.7
0.097615,329.0,91.9,2291.0,240.4,2568.4,740.4,332.9,2275.3,2623.1,116.1,74.7
0.099615,324.1,81.7,2285.2,220.6,2590.3,716.6,330.5,2275.6,2618.9,115.8,74.6
0.101615,321.6,77.7,2281.4,214.7,2602.6,681.4,328,2277.2,2612,115.5,74.5
0.103615,320.3,75.8,2275.4,227.1,2604.9,582.9,325.4,2279.9,2602.4,115.2,74.5
0.105615,319.0,71.8,2269.1,235.2,2603.7,477.8,322.8,2283.4,2590.3,114.9,74.4
0.107615,317.3,67.4,2270.3,229.6,2597.0,426.6,320.2,2287.3,2575.9,114.6,74.3
0.109615,315.3,66.5,2282.0,218.2,2581.9,437.2,317.9,2291.3,2559.5,114.3,74.2
0.111615,313.3,69.2,2298.6,196.1,2562.5,485.0,315.9,2294.9,2541.6,114,74.1
0.113615,311.9,71.2,2303.7,166.5,2551.3,509.4,314.5,2297.4,2522.6,113.7,73.9
0.115615,312.1,69.0,2295.7,147.9,2545.0,487.6,313.6,2298.6,2503,113.4,73.7
0.117615,313.8,67.6,2287.3,141.5,2532.4,480.8,313.6,2297.8,2483.2,113.2,73.5
0.119615,317.4,70.6,2285.3,141.5,2506.1,526.6,314.4,2294.7,2463.8,112.9,73.3
0.121615,323.3,75.4,2290.6,138.4,2461.7,622.8,316.3,2289,2445.2,112.7,73.1
0.123615,328.8,73.5,2295.2,136.1,2405.2,667.3,319.2,2280.6,2427.8,112.5,73
0.125615,331.4,66.5,2295.0,153.8,2358.7,586.9,323.1,2269.3,2411.9,112.3,72.9
0.127615,333.1,63.6,2290.7,194.4,2334.0,475.0,328,2255.3,2397.9,112.2,72.8
0.129615,336.8,67.1,2280.9,324.7,2315.3,306.1,333.9,2238.8,2385.7,112.1,72.8
0.131615,343.1,69.2,2194.5,358.1,2359.1,223.9,340.5,2220.2,2375.6,112,72.8
0.133615,349.2,63.7,2149.6,327.4,2372.7,178.4,347.8,2199.8,2367.4,111.9,72.8
0.135615,353.6,57.2,2133.8,292.7,2376.1,160.1,355.5,2178.4,2361.2,111.8,72.9
0.137615,357.9,54.2,2127.7,276.8,2374.1,159.9,363.4,2156.5,2356.6,111.7,72.9
0.139615,363.2,54.6,2122.2,276.8,2368.3,176.4,371.1,2134.8,2353.6,111.7,72.9
0.141615,368.1,55.6,2116.3,278.0,2362.4,204.2,378.6,2114.2,2351.8,111.7,72.7
0.143615,372.0,54.2,2108.9,271.6,2360.4,220.0,385.4,2095.3,2350.8,0,72.5
0.145615,376.7,51.9,2099.8,272.0,2358.7,217.2,391.3,2078.8,2350.6,0,72.1
0.147615,385.0,53.7,2088.9,300.5,2353.2,217.1,396.2,2065.2,2350.7,0,71.6
0.149615,399.0,65.7,2073.8,371.9,2345.9,238.0,399.9,2055.2,2350.9,0,71
0.151615,417.6,86.0,2050.8,443.6,2348.9,276.7,402.1,2049,2351.2,0,70.4
0.153615,431.3,95.4,2032.1,467.3,2355.3,288.6,402.8,2046.9,2351.2,0,69.8
