time,f1,b1,f2,b2,f3,b3,f1p,f2p,f3p,f0,intensity
0.025565,326.0,528.1,1958.2,285.7,2570.1,565.0,357.7,1928.4,2433.1,205.2,68.8
0.027565,330.4,593.6,1952.8,342.4,2524.0,593.3,376.4,1928.7,2439.4,204.7,68.5
0.029565,352.4,656.2,1935.3,358.6,2473.4,667.7,406.3,1929.3,2449.3,204.2,68.3
0.031565,409.5,690.7,1921.9,326.9,2432.9,749.0,445.7,1929.7,2461.9,203.6,68.2
0.033565,506.6,662.8,1913.9,282.1,2422.3,750.8,492.3,1929.8,2476,203,68.1
0.035565,604.1,596.8,1912.0,241.9,2436.7,713.4,543.3,1929.4,2490.4,202.4,68.1
0.037565,672.2,556.5,1915.2,212.7,2452.2,711.4,595.9,1928.2,2503.8,201.7,68.2
0.039565,713.5,573.7,1919.3,196.2,2459.8,759.1,647,1925.9,2515,201,68.3
0.041565,733.9,655.6,1919.8,192.6,2458.2,835.4,694,1922.3,2522.8,200.2,68.5
0.043565,743.6,786.6,1913.6,196.3,2455.1,907.2,734.3,1917.4,2526.7,199.5,68.7
0.045565,749.3,887.4,1901.1,197.5,2466.8,930.3,766,1911.1,2526.3,198.7,68.9
0.047565,758.3,879.9,1888.1,191.9,2496.7,900.0,787.8,1903.4,2521.7,197.9,69.1
0.049565,769.7,784.5,1878.2,185.1,2528.2,846.2,799,1894.6,2513.5,197.1,69.3
0.051565,776.7,665.1,1873.8,182.0,2546.1,803.4,799.7,1884.9,2502.6,196.3,69.4
0.053565,777.2,545.0,1875.7,182.6,2551.1,783.6,790.6,1874.6,2490.4,195.5,69.6
0.055565,771.5,449.1,1881.9,187.2,2546.2,787.4,773,1864.1,2478.6,194.7,69.8
0.057565,760.4,386.5,1885.7,196.2,2535.5,801.2,749,1854,2468.9,194,70
0.059565,744.1,364.7,1878.8,205.5,2525.6,805.0,720.9,1844.6,2463.3,193.2,70.3
0.061565,722.1,374.2,1862.0,209.4,2520.3,794.0,691.1,1836.4,2463.6,192.5,70.7
0.063565,691.1,406.0,1841.3,206.9,2517.6,779.8,662.3,1829.7,2471.2,191.9,71
0.065565,652.3,454.3,1823.5,198.9,2517.4,774.4,637.1,1824.9,2487.5,191.3,71.2
0.067565,605.7,516.8,1810.3,187.5,2519.3,778.4,617.6,1822.1,2513.1,190.7,71.4
0.069565,557.5,579.9,1802.6,180.1,2518.9,780.0,605.6,1821.4,2548.2,190.2,71.5
0.071565,517.0,627.7,1799.2,183.0,2511.6,772.3,602.6,1822.7,2592.6,189.7,71.5
0.073565,498.9,650.0,1800.7,200.6,2498.1,778.7,609.1,1826.1,2645.3,189.3,71.3
0.075565,527.2,645.2,1810.2,237.3,2488.3,867.5,625.3,1831,2704.9,188.9,71.1
0.077565,615.3,643.0,1836.4,288.3,2529.8,1187.6,650.6,1837.4,2769.6,188.5,70.8
0.079565,743.9,626.0,1865.1,293.1,2881.1,1619.9,684,1844.6,2837,188.2,70.4
0.081565,852.5,544.3,1869.9,256.9,3170.8,1109.0,724,1852.3,2904.8,188,70.1
0.083565,909.6,460.2,1865.5,219.5,3175.2,850.0,768.6,1860.1,2970.5,187.8,69.8
0.085565,936.1,399.3,1864.6,191.2,3154.0,745.0,815.7,1867.6,3031.7,187.6,69.5
0.087565,946.5,357.6,1869.5,170.3,3131.0,669.7,863.2,1874.5,3086.2,187.5,69.3
0.089565,947.6,335.3,1876.4,155.0,3118.3,605.1,908.8,1880.6,3132.3,187.4,69.1
0.091565,942.7,328.3,1882.5,142.8,3120.2,548.2,950.8,1885.6,3168.5,187.3,68.9
0.093565,935.4,336.1,1889.1,135.0,3134.6,492.3,987.4,1889.7,3194.2,0,68.7
0.095565,932.5,353.9,1897.9,129.2,3152.0,425.0,1017.5,1893,3209.2,0,68.5
0.097565,937.1,373.6,1904.0,123.3,3163.5,371.9,1040.2,1895.6,3213.7,0,68.4
0.099565,947.9,403.1,1905.0,119.9,3168.4,354.2,1055.2,1898,3208.7,0,68.2
0.101565,975.7,469.9,1904.9,121.6,3163.7,373.2,1062.8,1900.5,3195.7,0,68
0.103565,1027.9,572.1,1905.8,127.0,3156.6,406.9,1063.4,1903.5,3176.4,0,67.8
0.105565,1083.4,653.9,1906.5,128.9,3161.1,421.1,1057.9,1907.5,3152.7,0,67.5
0.107565,1095.3,647.2,1907.0,121.1,3173.9,410.7,1047.5,1912.9,3126.6,0,67.1
0.109565,1061.6,540.4,1909.4,106.6,3184.2,410.2,1033.4,1919.9,3100.2,0,66.7
0.111565,1023.5,386.0,1919.3,94.5,3181.4,483.2,1017.1,1928.8,3075.4,0,66.3
0.113565,1009.0,287.2,1942.0,94.3,3098.4,677.4,999.7,1939.6,3053.6,0,66.1
0.115565,1006.9,258.5,1971.0,99.2,2953.5,685.9,982.5,1952.3,3036,0,66.3
0.117565,1005.2,274.0,1991.3,98.2,2943.0,605.9,966.4,1966.8,3023.2,0,66.6
0.119565,998.6,289.0,1999.7,93.4,2969.5,559.6,952,1982.5,3015.5,0,67
0.121565,988.8,287.3,2000.2,87.1,2996.9,527.8,939.9,1999.1,3012.8,0,67.1
0.123565,975.5,271.8,1997.5,81.2,3020.9,503.3,930.3,2016,3014.3,0,67
0.125565,955.6,243.3,1994.3,77.4,3039.0,488.0,923,2032.6,3019.3,0,66.7
0.127565,929.5,212.3,1996.1,80.7,3038.8,502.3,917.8,2048.1,3026.4,0,66.1
0.129565,901.2,198.6,2017.1,99.4,3009.3,577.4,914.4,2061.8,3034.5,0,65.5
0.131565,880.9,219.7,2063.1,120.5,2999.3,700.5,912.4,2073.3,3042.3,0,65.3
0.133565,871.0,274.3,2107.7,120.8,3052.1,875.2,911.3,2081.8,3048.8,0,65.4
0.135565,870.0,320.1,2128.5,111.0,3100.0,1094.7,910.8,2087.2,3053,0,65.8
0.137565,870.9,322.5,2134.3,101.2,3084.8,1250.1,910.6,2089,3054.5,0,66.3
