time,f1,b1,f2,b2,f3,b3,f1p,f2p,f3p,f0,intensity
0.025789,452.3,133.1,2241.0,68.9,2840.7,156.9,476.4,2280.2,2894.2,144.2,64.4
0.027789,469.6,116.2,2254.2,59.4,2892.2,177.0,477.7,2282.2,2893.6,144,64.6
0.029789,479.6,111.9,2276.9,50.9,2928.6,200.1,479.7,2285.3,2892.6,143.9,64.8
0.031789,485.7,116.8,2302.1,44.8,2934.2,246.4,482.3,2289.6,2891,143.7,64.9
0.033789,489.7,126.4,2319.1,41.7,2912.4,308.7,485.4,2294.8,2888.7,143.6,64.9
0.035789,494.1,137.7,2326.7,40.5,2883.5,357.0,488.8,2300.9,2885.4,143.4,64.8
0.037789,499.4,149.7,2328.1,41.2,2864.9,379.7,492.2,2307.6,2881,143.2,64.8
0.039789,505.8,165.9,2327.2,43.8,2849.5,386.0,495.5,2314.6,2875.3,143.1,64.6
0.041789,511.3,182.0,2327.3,46.4,2835.6,383.2,498.5,2321.8,2868.1,142.9,64.5
0.043789,513.5,188.3,2329.6,47.8,2831.2,387.6,501,2329,2859.4,142.7,64.4
0.045789,511.4,180.8,2334.2,50.0,2838.9,419.5,502.9,2335.8,2849,142.6,64.5
0.047789,506.9,166.6,2340.0,54.1,2851.7,476.2,504.2,2342.1,2837.1,142.4,64.6
0.049789,501.4,152.2,2346.3,57.4,2855.4,530.5,504.8,2347.8,2823.6,142.3,64.8
0.051789,496.1,140.9,2351.9,56.6,2839.4,546.9,504.8,2352.5,2808.8,142.1,65
0.053789,492.6,134.0,2355.0,53.6,2811.6,518.8,504.2,2356.2,2792.9,141.9,65.2
0.055789,491.8,129.2,2354.9,50.8,2784.5,470.1,503.2,2358.9,2776.1,141.8,65.3
0.057789,492.3,125.1,2352.9,50.0,2763.3,431.5,502,2360.4,2758.9,141.7,65.4
0.059789,492.5,123.9,2350.6,52.3,2742.6,408.2,500.8,2360.7,2741.6,141.5,65.5
0.061789,493.3,127.1,2349.4,56.9,2724.0,395.2,499.7,2360,2724.5,141.4,65.5
0.063789,495.7,132.0,2349.8,60.2,2710.8,387.0,498.9,2358.2,2708.2,141.3,65.5
0.065789,499.5,137.5,2351.7,62.4,2696.8,389.7,498.6,2355.6,2692.9,141.2,65.5
0.067789,504.2,141.7,2353.6,68.4,2665.7,398.7,498.9,2352.3,2678.9,141.1,65.4
0.069789,509.4,142.8,2353.6,77.2,2627.0,388.8,499.9,2348.5,2666.7,141,65.4
0.071789,513.0,143.1,2351.6,79.4,2614.3,367.3,501.7,2344.4,2656.2,140.9,65.4
0.073789,514.0,145.4,2347.8,76.2,2623.5,346.9,504.2,2340.2,2647.7,140.8,65.4
0.075789,513.9,148.1,2341.9,74.3,2632.8,320.6,507.3,2336.1,2641.3,140.8,65.4
0.077789,514.6,149.5,2334.8,72.8,2635.8,294.1,511.1,2332.2,2636.8,140.7,65.4
0.079789,515.7,152.8,2328.5,69.6,2639.6,287.5,515.3,2328.9,2634.2,140.6,65.5
0.081789,517.5,161.7,2323.6,64.8,2650.1,309.4,519.9,2326,2633.2,140.6,65.5
0.083789,521.0,170.9,2320.5,58.9,2665.8,350.9,524.6,2323.8,2633.7,140.5,65.5
0.085789,525.3,170.0,2320.2,54.5,2676.9,387.5,529.3,2322.2,2635.4,140.5,65.5
0.087789,529.6,158.2,2321.9,53.9,2677.9,411.4,533.9,2321.1,2637.9,140.4,65.5
0.089789,534.3,141.8,2324.1,58.7,2665.8,423.5,538.3,2320.6,2641.1,140.4,65.5
0.091789,539.1,128.3,2325.9,66.3,2647.2,432.8,542.5,2320.3,2644.5,140.3,65.5
0.093789,543.5,121.2,2327.4,70.5,2635.1,464.7,546.4,2320.2,2648,140.3,65.5
0.095789,547.5,120.8,2327.4,68.0,2637.2,536.0,550.1,2320,2651.2,140.2,65.6
0.097789,551.8,119.8,2324.6,62.9,2642.5,613.5,553.6,2319.4,2654.1,140.2,65.7
0.099789,555.8,114.4,2320.8,59.8,2641.3,631.8,557.2,2318.2,2656.4,140.1,65.8
0.101789,559.5,107.9,2315.7,59.6,2639.3,589.9,561,2316.1,2658.2,140.1,65.9
0.103789,563.6,103.9,2307.5,61.4,2637.3,523.6,565.2,2312.8,2659.3,140.1,66
0.105789,569.1,103.6,2297.5,62.5,2639.3,477.1,569.9,2308.2,2659.9,140,66
0.107789,577.2,109.9,2287.8,63.5,2646.8,465.6,575.3,2302.1,2659.9,140,65.9
0.109789,587.1,124.5,2277.6,69.0,2648.6,472.1,581.6,2294.4,2659.5,140,65.9
0.111789,597.2,141.0,2264.3,78.8,2638.0,466.0,588.9,2285.2,2658.7,0,65.8
0.113789,604.9,147.8,2253.5,82.5,2632.8,450.8,597.3,2274.4,2657.7,0,65.7
0.115789,613.2,148.6,2250.2,75.7,2654.1,456.4,606.6,2262.2,2656.7,0,65.7
0.117789,625.6,149.4,2252.3,66.0,2696.0,479.2,616.8,2248.8,2655.6,0,65.7
0.119789,638.3,145.3,2253.8,60.9,2719.1,485.3,627.7,2234.6,2654.6,0,65.9
0.121789,645.5,132.5,2252.0,60.0,2710.4,470.5,639.1,2219.9,2653.7,0,66
0.123789,646.6,120.7,2244.7,63.7,2684.4,450.7,650.7,2205,2653.1,0,66.2
0.125789,646.3,120.5,2224.9,74.9,2650.8,428.6,662.1,2190.5,2652.6,0,66.3
0.127789,648.3,131.2,2192.2,84.4,2633.2,396.8,673.1,2176.7,2652.3,0,66.4
0.129789,653.6,138.9,2166.4,81.2,2636.5,367.4,683.1,2164.2,2652.1,0,66.3
0.131789,661.9,141.3,2151.9,74.4,2642.0,341.2,692,2153.3,2652.1,0,66.2
0.133789,674.6,154.7,2140.8,74.1,2642.9,316.9,699.2,2144.4,2652.1,0,66
0.135789,700.9,217.0,2124.7,87.2,2640.1,293.7,704.6,2137.8,2652.2,0,65.9
0.137789,739.9,328.5,2109.3,104.0,2639.9,280.1,707.9,2133.7,2652.2,0,65.8
0.139789,768.9,399.4,2101.1,108.4,2643.4,270.4,709,2132.4,2652.3,0,65.6
