time,f1,b1,f2,b2,f3,b3,f1p,f2p,f3p,f0,intensity
0.025753,497.6,51.0,1658.1,266.3,2544.1,278.6,455.8,1833.1,2449.5,0,65.7
0.027753,496.8,46.1,1677.7,235.1,2511.6,276.0,455.9,1834.3,2449.6,0,65.9
0.029753,500.5,37.9,1705.3,212.7,2476.2,259.6,456.1,1836.2,2449.7,0,66
0.031753,504.6,32.5,1737.3,206.5,2444.0,246.2,456.3,1838.9,2449.9,0,66.3
0.033753,505.5,31.1,1764.0,216.7,2422.8,248.1,456.6,1842.3,2450.1,0,66.5
0.035753,502.6,33.1,1791.7,250.5,2407.5,272.0,456.9,1846.5,2450.3,0,66.7
0.037753,496.6,37.2,1831.8,313.5,2388.5,314.8,457.3,1851.4,2450.6,0,66.9
0.039753,488.6,40.2,1886.0,384.2,2364.0,352.8,457.8,1857,2450.9,144.8,67
0.041753,479.4,39.6,1934.5,414.7,2354.5,366.0,458.3,1863.3,2451.3,144.8,67.2
0.043753,468.8,37.4,1960.5,392.0,2378.4,351.9,458.8,1870.3,2451.7,144.8,67.4
0.045753,456.9,36.5,1969.7,345.2,2423.2,300.2,459.4,1877.9,2452.1,144.7,67.5
0.047753,446.5,36.8,1973.9,305.1,2456.6,226.6,460.1,1886.1,2452.6,144.7,67.6
0.049753,439.6,37.1,1976.1,282.0,2471.6,156.5,460.8,1894.9,2453.1,144.7,67.8
0.051753,437.4,36.7,1973.9,281.4,2475.2,106.3,461.5,1904.3,2453.6,144.6,67.9
0.053753,438.5,36.3,1968.7,296.8,2476.3,75.2,462.3,1914.1,2454.2,144.5,68.1
0.055753,441.1,36.2,1966.0,317.6,2477.7,56.7,463.2,1924.5,2454.8,144.4,68.2
0.057753,443.7,36.6,1969.3,339.7,2478.5,45.9,464,1935.3,2455.5,144.3,68.4
0.059753,445.8,37.4,1978.6,366.6,2477.5,40.7,464.9,1946.5,2456.1,144.2,68.5
0.061753,447.7,38.2,1994.4,406.0,2475.5,38.8,465.9,1958.1,2456.8,144,68.6
0.063753,449.0,38.5,2014.7,456.5,2475.1,39.1,466.8,1970,2457.5,143.8,68.6
0.065753,449.1,38.3,2032.8,504.1,2478.1,40.1,467.8,1982.2,2458.3,143.5,68.7
0.067753,449.1,37.4,2040.9,526.8,2482.8,40.1,468.8,1994.6,2459,143.2,68.7
0.069753,449.8,36.3,2044.8,525.5,2484.2,38.6,469.8,2007.3,2459.8,142.9,68.8
0.071753,450.1,36.1,2051.7,515.8,2479.8,36.6,470.9,2020.1,2460.6,142.5,68.8
0.073753,449.6,36.5,2059.1,506.9,2472.7,34.3,471.9,2033,2461.4,142.1,68.9
0.075753,449.0,36.1,2064.7,500.9,2466.5,31.0,473,2046,2462.2,141.7,68.9
0.077753,448.2,34.9,2069.2,496.1,2463.6,27.8,474.1,2059,2463,141.2,68.9
0.079753,446.5,34.1,2074.9,488.5,2463.2,26.2,475.1,2071.9,2463.8,140.7,68.8
0.081753,444.9,34.1,2085.3,481.0,2463.8,26.8,476.2,2084.8,2464.7,140.2,68.6
0.083753,444.6,35.0,2098.2,483.9,2464.1,29.2,477.3,2097.6,2465.5,139.6,68.3
0.085753,444.7,37.6,2107.5,503.4,2463.5,33.5,478.3,2110.3,2466.3,139,68
0.087753,444.8,42.4,2114.7,535.8,2462.9,41.3,479.3,2122.7,2467.1,138.3,67.7
0.089753,446.3,47.8,2123.8,568.6,2463.5,49.8,480.4,2134.9,2468,137.7,67.4
0.091753,450.6,52.5,2135.9,604.3,2465.8,51.9,481.4,2146.8,2468.8,137,67.1
0.093753,458.0,56.5,2159.3,639.0,2467.9,48.4,482.4,2158.4,2469.6,136.2,67
0.095753,467.1,56.2,2189.6,643.7,2469.1,45.4,483.3,2169.6,2470.4,135.5,67
0.097753,476.4,51.3,2203.8,623.5,2470.7,44.2,484.3,2180.4,2471.1,134.8,67
0.099753,486.8,46.3,2192.5,602.3,2474.3,45.8,485.2,2190.7,2471.9,134,67
0.101753,497.6,43.5,2168.8,582.7,2480.9,52.7,486.1,2200.6,2472.6,133.2,67
0.103753,506.3,40.1,2158.2,555.8,2489.0,64.4,486.9,2210,2473.4,132.5,66.9
0.105753,511.1,34.7,2176.8,529.9,2493.0,77.3,487.7,2218.8,2474.1,131.7,66.9
0.107753,512.7,29.9,2227.6,506.8,2488.6,91.5,488.5,2227.1,2474.7,131,66.9
0.109753,512.6,27.6,2288.0,476.7,2479.6,106.6,489.3,2234.7,2475.4,130.2,66.9
0.111753,511.9,27.2,2319.6,452.6,2473.7,109.4,490,2241.8,2476,129.5,66.9
0.113753,510.7,27.8,2310.3,445.4,2473.1,93.6,490.6,2248.2,2476.6,128.8,66.9
0.115753,507.7,30.5,2271.0,437.3,2474.7,72.9,491.2,2253.9,2477.1,128.1,66.9
0.117753,501.9,36.5,2235.8,412.8,2475.8,60.7,491.8,2259,2477.6,127.5,66.8
0.119753,495.3,42.4,2225.0,391.1,2476.3,55.9,492.3,2263.3,2478.1,126.8,66.8
0.121753,491.3,44.4,2225.8,396.4,2475.7,53.8,492.8,2266.9,2478.5,126.2,66.7
0.123753,489.7,43.7,2220.5,445.5,2473.2,53.6,493.3,2269.8,2479,125.7,66.7
0.125753,489.7,42.0,2203.0,531.4,2469.5,58.3,493.7,2272,2479.3,125.1,66.7
0.127753,491.5,39.3,2195.2,595.8,2467.0,70.2,494,2273.4,2479.6,124.7,66.7
0.129753,494.8,36.3,2210.3,622.5,2467.6,81.9,494.3,2274.1,2479.9,124.2,66.6
0.131753,498.7,34.6,2231.5,641.0,2470.4,88.1,494.5,2274.1,2480.2,123.8,66.5
0.133753,501.9,35.0,2245.7,658.1,2473.6,95.0,494.8,2273.3,2480.4,123.4,66.3
0.135753,503.5,35.1,2244.4,648.6,2477.8,101.1,494.9,2271.7,2480.5,123.1,66.2
0.137753,503.6,33.0,2226.7,628.6,2482.3,95.6,495,2269.5,2480.6,122.8,66
0.139753,502.5,30.3,2195.8,626.7,2485.2,79.9,495.1,2266.5,2480.7,122.5,66
0.141753,500.8,29.3,2163.2,646.3,2485.6,66.5,495.1,2262.8,2480.7,122.3,66
0.143753,499.4,28.9,2153.3,663.7,2483.5,61.0,495.1,2258.4,2480.7,122.2,66.1
0.145753,498.6,27.3,2167.7,671.8,2480.3,59.5,495.1,2253.3,2480.6,122,66.3
0.147753,497.5,25.7,2182.3,684.5,2477.3,58.6,495,2247.6,2480.5,121.9,66.4
0.149753,496.1,25.6,2183.0,704.7,2475.4,59.0,494.8,2241.2,2480.4,121.9,66.6
0.151753,495.8,25.9,2174.3,711.0,2475.0,59.1,494.6,2234.2,2480.2,121.9,66.7
0.153753,496.9,24.9,2166.9,697.0,2476.0,55.4,494.4,2226.6,2479.9,121.9,66.8
0.155753,497.9,24.0,2167.6,683.5,2477.5,51.1,494.2,2218.4,2479.6,122,66.8
0.157753,497.3,25.5,2184.1,683.9,2479.1,52.6,493.9,2209.7,2479.3,122.1,66.8
0.159753,495.6,29.1,2219.8,686.3,2480.4,60.9,493.6,2200.5,2479,122.3,66.7
0.161753,494.7,31.2,2252.2,682.8,2480.2,66.3,493.3,2190.8,2478.5,122.5,66.6
0.163753,494.5,30.7,2250.7,702.4,2478.4,61.0,492.9,2180.7,2478.1,122.8,66.5
0.165753,493.2,30.1,2198.3,760.8,2476.7,49.9,492.5,2170.1,2477.6,123,66.4
0.167753,491.3,31.0,2120.2,816.2,2477.0,42.9,492.1,2159.1,2477.1,123.4,66.3
0.169753,491.1,31.3,2082.0,853.2,2479.4,41.6,491.7,2147.8,2476.5,123.7,66.1
0.171753,492.9,30.5,2096.4,913.1,2480.9,41.3,491.2,2136.2,2475.9,124.1,66
0.173753,495.6,30.5,2148.4,1044.9,2477.9,41.9,490.8,2124.3,2475.3,124.6,65.9
0.175753,498.3,32.0,2225.9,1256.4,2469.7,45.0,490.3,2112.2,2474.6,125,65.7
0.177753,500.8,33.5,2319.3,1481.8,2459.2,49.5,489.8,2099.9,2474,125.5,65.4
0.179753,503.0,33.6,2392.9,1548.4,2453.5,54.1,489.3,2087.4,2473.2,126,65.1
0.181753,504.4,33.9,2386.4,1388.3,2455.5,60.6,488.8,2074.8,2472.5,126.6,64.7
0.183753,504.9,36.1,2311.8,1174.2,2463.2,69.9,488.2,2062.2,2471.7,127.2,64.3
0.185753,504.6,38.8,2234.5,1044.7,2471.7,73.5,487.7,2049.4,2471,127.7,63.8
0.187753,503.2,40.5,2153.6,1013.3,2476.2,63.4,487.2,2036.7,2470.2,128.3,63.4
0.189753,499.1,43.0,2047.7,1024.9,2476.9,45.4,486.6,2024,2469.3,128.9,63.1
0.191753,492.3,47.6,1958.6,1032.7,2476.2,32.8,486.1,2011.4,2468.5,129.6,62.9
0.193753,487.2,51.0,1943.2,1040.9,2476.3,29.4,485.6,1998.9,2467.6,130.2,62.7
0.195753,486.8,52.2,1977.8,1039.9,2477.8,32.5,485,1986.5,2466.8,130.8,62.5
0.197753,489.1,53.2,1997.4,1001.7,2479.7,39.7,484.5,1974.3,2465.9,131.4,62.4
0.199753,490.7,54.3,1982.1,953.6,2479.3,49.9,484,1962.3,2465,132,62.4
0.201753,490.2,53.6,1953.1,942.6,2472.4,56.9,483.5,1950.6,2464.1,132.6,62.4
0.203753,487.7,52.4,1916.0,983.9,2459.9,50.9,483,1939.1,2463.2,133.2,62.5
0.205753,484.2,52.5,1880.8,1050.8,2451.9,38.6,482.5,1928,2462.4,133.7,62.8
0.207753,481.7,53.9,1875.4,1162.5,2450.5,32.9,482,1917.2,2461.5,134.3,63
0.209753,480.5,56.3,1900.6,1387.0,2452.3,33.6,481.5,1906.8,2460.6,134.8,63.2
0.211753,479.1,60.4,1915.8,1736.2,2455.2,36.4,481,1896.7,2459.7,135.2,63.4
0.213753,477.7,65.7,1887.9,2138.0,2457.8,39.0,480.5,1887.1,2458.9,135.7,63.5
0.215753,478.8,69.4,1835.7,2581.1,2458.1,41.6,480.1,1878,2458,136.1,63.6
0.217753,483.6,68.5,1777.7,2943.7,2454.1,43.0,479.6,1869.3,2457.2,136.5,63.7
0.219753,489.9,64.9,1690.7,2930.6,2446.1,41.8,479.2,1861,2456.3,136.8,63.8
0.221753,494.1,60.2,1600.4,2595.6,2438.8,37.0,478.8,1853.3,2455.5,137.1,63.9
0.223753,493.2,54.8,1547.6,2256.4,2439.2,30.4,478.4,1846.2,2454.7,137.3,63.9
0.225753,485.5,51.5,1511.1,2071.6,2446.3,25.3,478,1839.5,2453.9,137.5,63.9
0.227753,472.0,51.7,1497.7,2027.1,2455.0,23.8,477.6,1833.4,2453.2,137.7,63.9
0.229753,453.3,51.8,1601.1,2022.2,2462.0,29.7,477.2,1827.9,2452.5,137.8,63.7
0.231753,434.6,47.0,1864.2,1774.6,2463.6,48.3,476.9,1822.9,2451.8,137.8,63.6
0.233753,424.7,41.0,2076.7,1305.6,2462.5,72.4,476.5,1818.6,2451.1,137.8,63.4
0.235753,425.4,39.4,2170.8,1023.1,2464.2,85.8,476.2,1814.8,2450.5,137.8,63.2
0.237753,429.9,40.9,2205.3,909.6,2466.1,85.3,475.9,1811.6,2449.8,137.7,63
0.239753,431.9,43.2,2183.1,872.1,2465.4,75.6,475.6,1809,2449.3,137.6,62.8
0.241753,430.0,45.9,2116.1,866.3,2460.8,63.3,475.3,1807,2448.7,137.4,62.7
0.243753,428.7,48.5,2058.4,883.1,2454.2,56.6,475,1805.6,2448.2,137.1,62.6
0.245753,432.1,51.4,2036.7,932.3,2448.4,56.5,474.7,1804.8,2447.7,136.8,62.5
0.247753,438.8,55.1,2036.4,1002.1,2443.4,60.9,474.4,1804.5,2447.3,136.5,62.4
0.249753,445.8,57.8,2030.9,1089.3,2438.4,64.5,474.2,1804.9,2446.9,136.1,62.3
0.251753,452.7,58.1,2004.6,1221.5,2436.3,61.8,473.9,1805.8,2446.5,135.7,62.2
0.253753,460.6,59.0,1942.4,1495.0,2438.9,52.9,473.6,1807.3,2446.2,135.2,62.2
0.255753,469.8,64.2,1802.1,2008.5,2444.1,44.0,473.4,1809.3,2445.9,134.7,62.2
0.257753,479.4,70.5,1556.1,2622.3,2447.1,40.5,473.2,1811.9,2445.6,134.2,62.2
0.259753,486.6,72.1,1347.6,2964.9,2443.6,44.0,472.9,1815,2445.4,133.6,62.2
0.261753,491.3,72.4,1263.4,3008.4,2434.3,52.1,472.7,1818.6,2445.3,133.1,62.2
0.263753,495.4,74.5,1232.0,2886.4,2427.1,61.3,472.5,1822.7,2445.1,132.4,62.3
0.265753,498.2,72.9,1303.3,2499.7,2432.3,69.2,472.3,1827.3,2445,131.8,62.3
0.267753,498.8,62.4,1457.3,1854.7,2451.2,72.5,472.1,1832.3,2445,131.2,62.4
0.269753,499.5,48.9,1579.7,1320.9,2468.9,66.4,471.9,1837.8,2445,130.5,62.5
0.271753,501.2,40.1,1655.3,1048.8,2474.1,56.7,471.7,1843.7,2445,129.8,62.6
0.273753,502.5,35.7,1707.1,953.1,2471.4,49.6,471.5,1850,2445.1,129.1,62.6
0.275753,501.8,34.3,1757.6,929.3,2465.7,47.7,471.3,1856.7,2445.2,128.4,62.5
0.277753,497.1,36.6,1816.0,922.1,2458.8,53.0,471.1,1863.8,2445.4,127.7,62.4
0.279753,487.4,43.7,1884.1,935.7,2451.7,65.9,470.9,1871.2,2445.6,127.1,62.2
0.281753,477.4,52.8,1941.0,993.5,2447.7,76.8,470.7,1878.9,2445.8,126.4,62
0.283753,473.5,58.9,1955.3,1111.8,2447.8,73.5,470.6,1886.9,2446.1,125.7,62
0.285753,476.4,59.0,1921.0,1277.3,2451.2,59.7,470.4,1895.1,2446.4,125,62.1
0.287753,480.7,53.6,1903.8,1437.2,2454.6,48.5,470.2,1903.6,2446.7,124.4,62.3
0.289753,483.3,46.7,1958.3,1554.8,2454.5,43.2,470.1,1912.4,2447.1,123.8,62.6
0.291753,485.0,41.7,2064.8,1575.8,2451.3,42.1,469.9,1921.3,2447.5,123.2,62.8
0.293753,486.8,39.5,2160.0,1484.6,2445.2,44.6,469.7,1930.4,2447.9,122.6,62.9
0.295753,488.4,40.2,2201.3,1403.1,2437.1,50.2,469.6,1939.6,2448.4,122,63
0.297753,488.5,39.7,2198.2,1336.9,2431.9,53.1,469.5,1949,2448.9,121.5,63.1
0.299753,486.2,36.5,2135.6,1197.3,2433.2,49.2,469.3,1958.5,2449.4,121,63.2
0.301753,482.0,33.0,2063.0,979.3,2438.0,42.8,469.2,1968,2449.9,120.5,63.3
0.303753,478.1,30.9,2031.7,805.7,2442.2,39.1,469.1,1977.6,2450.5,120,63.5
0.305753,476.5,28.9,2033.8,724.7,2444.6,37.7,469,1987.3,2451.1,119.6,63.7
0.307753,476.1,26.6,2055.7,719.9,2445.2,38.0,468.9,1996.9,2451.7,119.2,63.8
0.309753,474.3,25.9,2090.0,768.2,2444.5,41.5,468.8,2006.6,2452.4,118.8,63.9
0.311753,470.5,27.8,2122.9,834.2,2442.6,49.7,468.8,2016.2,2453,118.4,63.9
0.313753,467.3,30.3,2137.3,846.1,2441.8,57.9,468.7,2025.8,2453.7,118.1,63.9
0.315753,466.7,30.5,2145.2,798.8,2443.6,59.9,468.7,2035.3,2454.4,117.8,63.7
0.317753,467.0,28.8,2153.1,725.4,2447.3,57.3,468.7,2044.8,2455.1,117.5,63.6
0.319753,465.2,27.9,2162.2,651.0,2452.1,55.7,468.7,2054.1,2455.9,117.2,63.5
0.321753,461.2,28.6,2170.9,592.7,2457.5,55.0,468.7,2063.4,2456.6,117,63.5
0.323753,459.1,28.6,2176.9,567.2,2460.6,50.9,468.7,2072.5,2457.3,116.7,63.5
0.325753,460.3,27.7,2179.7,589.1,2460.1,44.4,468.8,2081.4,2458.1,116.5,63.6
0.327753,462.9,27.8,2172.5,669.9,2456.9,38.7,468.8,2090.2,2458.9,116.3,63.7
0.329753,464.9,28.9,2154.9,764.7,2453.7,35.5,468.9,2098.9,2459.6,116,63.9
0.331753,466.4,28.5,2142.2,808.6,2452.3,34.0,469,2107.3,2460.4,115.8,64.1
0.333753,467.3,26.1,2139.3,800.7,2453.1,32.7,469.2,2115.6,2461.2,115.6,64.1
0.335753,466.5,24.3,2135.1,783.4,2455.5,33.1,469.3,2123.6,2462,115.4,64.2
0.337753,463.7,25.0,2125.7,770.1,2459.7,39.3,469.5,2131.5,2462.8,115.2,64.1
0.339753,461.4,26.4,2119.9,741.6,2466.4,52.4,469.7,2139.1,2463.5,115,64.1
0.341753,461.8,25.7,2117.3,709.9,2472.5,62.7,469.9,2146.5,2464.3,114.7,64
0.343753,463.5,23.9,2112.1,714.0,2472.2,64.4,470.2,2153.7,2465.1,114.5,63.9
0.345753,463.9,23.6,2096.0,776.3,2463.5,62.1,470.5,2160.6,2465.8,114.2,63.9
0.347753,463.1,24.7,2073.3,853.3,2452.2,60.2,470.8,2167.3,2466.6,113.9,63.9
0.349753,463.0,24.4,2065.0,876.7,2447.1,58.5,471.1,2173.7,2467.3,113.6,64
0.351753,463.3,22.5,2071.6,835.8,2450.4,57.1,471.5,2179.9,2468.1,113.3,64
0.353753,462.1,21.2,2081.3,755.6,2458.9,57.4,471.8,2185.9,2468.8,113,64
0.355753,459.7,21.7,2091.2,677.9,2467.2,58.0,472.3,2191.6,2469.5,112.6,64
0.357753,458.6,22.4,2106.0,624.9,2472.0,55.3,472.7,2197,2470.3,112.2,64
0.359753,459.8,21.8,2123.2,600.0,2473.2,49.9,473.2,2202.2,2471,111.8,63.8
0.361753,461.1,21.2,2141.4,602.6,2472.6,45.8,473.6,2207.1,2471.6,111.3,63.6
0.363753,459.5,23.6,2164.3,631.5,2471.7,46.6,474.2,2211.8,2472.3,110.8,63.3
0.365753,456.4,29.4,2193.0,650.3,2472.2,51.1,474.7,2216.3,2473,110.3,63
0.367753,457.0,34.5,2212.2,650.4,2474.6,52.3,475.2,2220.5,2473.6,109.7,62.6
0.369753,463.6,37.3,2210.4,673.6,2478.0,48.6,475.8,2224.5,2474.2,109.2,62.3
0.371753,472.4,41.9,2178.3,744.4,2483.1,44.6,476.4,2228.2,2474.9,108.5,62
0.373753,478.7,50.2,2128.2,809.0,2490.6,44.5,477,2231.7,2475.5,107.9,61.8
0.375753,482.5,56.4,2101.7,817.0,2496.8,45.0,477.7,2235,2476,107.1,61.7
0.377753,486.6,55.4,2111.8,809.8,2497.5,43.3,478.3,2238.1,2476.6,106.4,61.6
0.379753,491.5,51.2,2144.7,830.5,2494.1,42.2,479,2240.9,2477.1,105.6,61.7
0.381753,495.1,50.3,2195.6,886.5,2488.9,45.1,479.7,2243.6,2477.7,104.8,61.9
0.383753,496.4,51.7,2273.5,914.5,2484.7,50.1,480.4,2246,2478.2,103.9,62.1
0.385753,496.2,49.2,2323.8,864.7,2483.2,49.9,481.1,2248.3,2478.7,103,62.2
0.387753,495.8,42.6,2316.2,813.3,2483.4,44.2,481.8,2250.4,2479.1,102,62.3
0.389753,494.9,36.6,2281.4,758.7,2484.3,40.4,482.5,2252.3,2479.6,101,62.2
0.391753,492.6,36.2,2264.8,686.9,2486.1,47.6,483.3,2254,2480,100,62
0.393753,489.1,38.7,2264.5,619.8,2489.2,65.2,484,2255.6,2480.4,98.9,61.8
0.395753,486.0,39.1,2265.8,571.1,2492.0,78.0,484.7,2257.1,2480.8,97.8,61.6
0.397753,484.0,37.8,2260.1,555.3,2492.5,73.5,485.5,2258.4,2481.2,96.6,61.4
0.399753,483.4,39.2,2238.3,562.0,2492.9,60.5,486.2,2259.5,2481.6,95.4,61.3
0.401753,485.3,45.8,2211.0,563.6,2495.5,51.5,486.9,2260.5,2481.9,94.2,61.3
0.403753,489.0,52.7,2211.3,548.0,2497.3,48.8,487.7,2261.5,2482.3,92.9,61.2
0.405753,491.0,53.4,2233.6,530.9,2496.1,46.8,488.4,2262.3,2482.6,0,61.2
0.407753,490.2,49.6,2262.3,525.3,2492.6,43.4,489.1,2263,2482.9,0,61.1
0.409753,486.9,46.4,2287.0,557.2,2487.3,39.9,489.8,2263.6,2483.2,0,61.1
0.411753,482.9,49.6,2293.2,645.6,2480.9,39.2,490.4,2264.1,2483.4,0,61.1
0.413753,481.0,55.7,2282.4,694.7,2476.5,46.0,491.1,2264.5,2483.7,0,61.1
0.415753,482.1,55.3,2279.5,665.1,2476.2,52.4,491.7,2264.9,2483.9,0,61.1
0.417753,484.6,49.6,2282.3,628.3,2477.9,50.1,492.4,2265.2,2484.1,0,61.1
0.419753,486.8,43.3,2286.3,613.2,2478.8,42.9,492.9,2265.5,2484.3,0,60.8
0.421753,487.9,38.6,2289.3,628.7,2478.2,34.5,493.5,2265.7,2484.5,0,60.4
0.423753,486.5,39.7,2289.8,688.6,2476.2,29.9,494,2265.8,2484.7,0,59.9
0.425753,483.1,51.7,2303.8,744.3,2473.0,39.3,494.6,2266,2484.9,78.9,59.3
0.427753,482.4,62.0,2323.0,688.7,2472.0,65.7,495,2266,2485,77.8,58.9
0.429753,485.6,57.4,2325.6,597.8,2476.1,79.0,495.5,2266.1,2485.1,76.7,58.7
0.431753,489.3,47.4,2326.8,545.0,2479.5,71.4,495.9,2266.1,2485.3,75.6,58.5
0.433753,492.9,37.5,2331.6,523.1,2480.2,56.2,496.3,2266.2,2485.4,74.7,58.2
0.435753,496.8,30.3,2335.8,538.2,2479.3,40.4,496.6,2266.2,2485.5,73.7,57.7
0.437753,502.6,28.3,2323.4,610.6,2478.2,27.3,496.9,2266.2,2485.6,72.8,57.1
0.439753,511.0,37.3,2271.0,687.8,2478.2,24.2,497.2,2266.2,2485.6,72,56.6
0.441753,516.9,61.5,2234.0,622.6,2480.5,43.8,497.4,2266.2,2485.7,71.3,56.4
0.443753,513.3,79.1,2228.7,525.4,2485.4,76.4,497.6,2266.1,2485.7,70.6,56.8
0.445753,508.5,75.9,2232.0,476.1,2487.4,83.4,497.7,2266.1,2485.8,70,57.4
0.447753,506.3,64.2,2242.5,459.2,2485.6,73.4,497.9,2266.1,2485.8,69.4,58.1
0.449753,506.0,51.7,2257.9,460.1,2482.4,60.0,497.9,2266.1,2485.8,68.9,58.5
0.451753,506.5,40.6,2275.5,476.4,2478.6,46.9,497.9,2266.1,2485.8,68.4,58.4
