time,f1,b1,f2,b2,f3,b3,f1p,f2p,f3p,f0,intensity
0.025433,725.0,428.4,1730.1,125.9,2579.6,200.9,754.9,1714.7,2686.6,0,60
0.027433,734.5,410.2,1725.0,111.6,2600.0,180.3,754.8,1718.3,2685.2,0,60.8
0.029433,744.3,377.9,1728.1,104.8,2641.7,167.5,754.6,1724.1,2682.9,0,61.7
0.031433,759.6,358.2,1744.9,111.0,2687.8,167.4,754.2,1732.1,2679.8,0,62.5
0.033433,768.2,329.9,1762.7,117.9,2710.2,182.0,753.7,1742.1,2675.9,0,63.3
0.035433,766.5,301.7,1767.5,115.0,2711.9,192.6,752.9,1753.9,2671.3,0,63.9
0.037433,760.9,284.0,1767.4,108.6,2707.9,185.8,751.9,1767.3,2666,0,64.5
0.039433,755.0,276.4,1770.4,105.1,2700.7,173.2,750.6,1782,2660.2,0,64.9
0.041433,751.5,282.4,1782.0,107.7,2688.9,168.9,748.8,1797.8,2653.9,0,65.3
0.043433,750.3,294.2,1799.8,110.8,2674.8,169.5,746.6,1814.3,2647.3,0,65.6
0.045433,749.7,291.9,1816.2,108.9,2660.8,169.0,744,1831.3,2640.6,0,66
0.047433,748.8,269.9,1831.3,105.9,2644.8,170.9,740.7,1848.6,2633.7,142.6,66.5
0.049433,746.4,237.4,1848.8,104.5,2625.8,178.8,736.8,1865.7,2626.9,142.9,67
0.051433,740.8,203.0,1865.9,103.8,2611.0,190.9,732.3,1882.6,2620.3,143.3,67.6
0.053433,733.3,176.0,1882.2,105.6,2608.3,206.2,727.1,1898.9,2613.9,143.8,68
0.055433,724.4,157.3,1905.7,111.6,2616.2,227.1,721.1,1914.6,2607.9,144.2,68.4
0.057433,715.3,146.1,1934.5,114.4,2629.0,246.5,714.5,1929.3,2602.3,144.7,68.7
0.059433,706.8,138.7,1956.7,108.2,2640.0,259.9,707.1,1943.1,2597.3,145.2,69
0.061433,699.3,134.4,1967.4,98.0,2641.4,277.9,699,1955.8,2593,145.7,69.2
0.063433,691.3,133.6,1972.2,90.1,2627.7,308.2,690.2,1967.5,2589.4,146.2,69.4
0.065433,679.8,134.8,1976.8,84.3,2601.9,338.6,680.9,1978.1,2586.5,146.7,69.6
0.067433,662.8,136.6,1983.6,79.1,2577.3,358.0,670.9,1987.7,2584.5,147.2,69.9
0.069433,643.4,137.8,1993.0,75.2,2555.9,376.1,660.4,1996.3,2583.2,147.7,70.2
0.071433,625.1,135.1,2005.0,72.2,2532.2,397.6,649.5,2004.2,2582.9,148.3,70.6
0.073433,613.5,123.9,2017.4,69.5,2516.6,417.9,638.2,2011.5,2583.4,148.8,71.1
0.075433,607.2,104.8,2031.1,67.6,2511.7,442.0,626.6,2018.3,2584.7,149.3,71.6
0.077433,603.3,85.5,2046.4,67.0,2516.7,476.2,614.8,2024.8,2586.8,149.8,71.9
0.079433,600.6,72.1,2059.5,66.2,2535.7,517.4,602.9,2031.2,2589.8,150.3,72.2
0.081433,597.9,62.5,2067.5,65.8,2571.2,553.7,591,2037.8,2593.5,150.7,72.3
0.083433,594.1,54.2,2069.6,70.3,2612.2,562.3,579.1,2044.6,2597.9,151.1,72.3
0.085433,588.5,48.1,2065.9,84.8,2632.4,530.4,567.3,2051.9,2603,151.6,72.2
0.087433,580.9,46.2,2058.2,112.7,2632.4,474.0,555.7,2059.9,2608.7,151.9,71.9
0.089433,570.3,50.6,2048.7,153.7,2630.3,411.8,544.4,2068.6,2615,152.3,71.7
0.091433,555.8,60.8,2040.3,196.2,2638.6,352.9,533.3,2078.1,2621.8,152.6,71.5
0.093433,535.0,72.6,2036.5,239.0,2656.3,296.0,522.5,2088.6,2629,152.9,71.4
0.095433,512.6,78.2,2044.3,288.4,2670.9,252.1,512,2099.9,2636.6,153.1,71.5
0.097433,493.7,74.7,2067.6,349.2,2675.9,221.0,501.9,2112.2,2644.5,153.4,71.6
0.099433,479.9,64.9,2101.8,404.5,2675.6,193.5,492.1,2125.4,2652.7,153.6,71.8
0.101433,469.4,55.6,2135.9,443.1,2677.5,165.0,482.6,2139.3,2661.1,153.7,72
0.103433,460.1,49.5,2174.5,490.7,2681.3,139.9,473.5,2153.9,2669.7,153.8,72.1
0.105433,452.8,45.4,2221.3,559.6,2683.8,121.4,464.6,2169,2678.4,153.9,72.1
0.107433,448.7,41.9,2259.5,621.3,2686.3,106.2,456,2184.5,2687.2,154,72
0.109433,445.1,39.2,2275.6,660.6,2691.8,90.5,447.6,2200,2696,154,71.9
0.111433,440.6,38.9,2269.8,685.4,2698.4,78.5,439.4,2215.4,2704.8,153.9,71.6
0.113433,434.7,41.4,2252.7,701.0,2705.5,72.0,431.3,2230.5,2713.6,153.9,71.3
0.115433,426.5,45.6,2230.8,693.1,2715.2,70.8,423.4,2245.1,2722.3,153.8,71
0.117433,415.9,48.6,2213.7,667.0,2728.2,71.6,415.5,2258.8,2730.9,153.6,70.8
0.119433,404.3,48.2,2208.5,649.5,2741.6,69.3,407.7,2271.5,2739.3,153.5,70.7
0.121433,394.6,44.9,2218.8,661.5,2750.1,63.8,400,2283,2747.5,153.3,70.7
0.123433,388.5,41.9,2236.9,701.9,2752.8,60.2,392.3,2293.1,2755.5,153,70.7
0.125433,384.0,40.9,2256.7,766.0,2753.0,60.8,384.6,2301.6,2763.3,152.7,70.8
0.127433,378.9,41.6,2284.7,837.6,2753.0,67.2,377,2308.4,2770.8,152.3,70.9
0.129433,372.6,41.2,2319.7,863.3,2756.1,77.8,369.5,2313.4,2778,152,71
0.131433,365.2,38.2,2347.7,822.0,2766.1,87.7,362.1,2316.6,2784.8,151.5,71
0.133433,357.8,34.1,2355.3,750.8,2781.0,89.8,354.9,2317.9,2791.3,151,71
0.135433,350.0,30.5,2350.5,691.1,2795.0,83.6,347.9,2317.3,2797.3,150.5,70.9
0.137433,341.9,28.3,2345.9,676.2,2804.1,71.4,341.1,2314.9,2803,149.9,70.8
0.139433,334.6,27.5,2345.2,728.5,2809.0,56.8,334.6,2310.8,2808.2,149.2,70.7
0.141433,328.3,27.6,2343.6,844.0,2812.9,43.4,328.5,2305,2812.9,148.5,70.6
0.143433,323.3,27.6,2330.7,967.0,2817.6,33.8,322.9,2297.8,2817.1,147.7,70.4
0.145433,319.8,27.0,2297.8,982.9,2823.2,29.7,317.7,2289.2,2820.8,146.8,70.2
0.147433,316.7,26.3,2253.4,898.3,2829.9,29.5,313.1,2279.4,2823.9,145.9,70
0.149433,313.5,26.1,2217.0,796.8,2836.0,33.0,309,2268.7,2826.6,145,69.7
0.151433,310.3,26.6,2208.8,726.3,2837.4,38.7,305.6,2257.2,2828.7,143.9,69.4
0.153433,307.3,27.5,2227.6,672.2,2833.2,42.4,302.9,2245.2,2830.3,142.8,69.1
0.155433,304.7,28.0,2248.0,620.4,2830.0,39.6,300.8,2232.7,2831.4,141.7,68.8
0.157433,301.6,28.2,2250.9,571.6,2831.1,33.2,299.3,2220.1,2832,140.5,68.4
0.159433,297.9,28.7,2231.6,530.8,2835.2,26.6,298.6,2207.5,2832.1,139.2,68.1
0.161433,294.9,30.7,2202.2,492.1,2839.4,22.6,298.4,2195.1,2831.8,137.9,67.8
0.163433,293.3,34.4,2182.4,442.1,2841.1,21.8,298.9,2183,2831.1,136.5,67.4
0.165433,292.8,40.3,2177.4,393.9,2839.1,23.5,299.9,2171.3,2830.1,135.2,66.9
0.167433,294.2,49.4,2172.4,373.5,2835.4,26.0,301.4,2160.2,2828.8,133.7,66.4
0.169433,298.2,63.6,2150.9,381.0,2831.4,27.5,303.3,2149.8,2827.3,132.3,65.8
0.171433,303.0,79.9,2112.1,395.0,2828.3,26.3,305.6,2140.1,2825.5,130.8,65.2
0.173433,306.0,93.0,2072.9,398.8,2825.5,23.8,308.1,2131.2,2823.7,129.3,64.6
0.175433,307.2,95.3,2059.4,401.3,2821.9,22.4,310.7,2123.2,2821.8,127.8,64.1
0.177433,308.1,81.1,2085.0,412.1,2817.3,23.4,313.3,2116,2819.9,126.4,63.8
0.179433,309.9,61.8,2124.3,415.7,2813.5,26.3,316,2109.7,2818.1,124.9,63.5
0.181433,314.0,54.2,2130.9,401.1,2812.0,30.0,318.4,2104.2,2816.4,123.5,63.3
0.183433,321.7,59.5,2112.0,376.2,2811.6,33.8,320.7,2099.7,2814.8,122.1,63.1
0.185433,331.5,69.4,2103.4,357.8,2810.4,35.3,322.7,2096,2813.5,120.7,62.9
0.187433,337.6,77.2,2105.1,354.6,2808.9,33.0,324.3,2093.1,2812.4,119.4,62.7
0.189433,335.8,81.1,2105.9,365.4,2808.5,29.3,325.5,2091,2811.6,118.1,62.4
0.191433,328.3,84.4,2103.8,389.1,2808.3,27.8,326.2,2089.8,2811.2,116.9,62.2
0.193433,320.9,86.1,2108.6,411.8,2805.7,32.3,326.4,2089.4,2811,115.8,62.1
