time,f1,b1,f2,b2,f3,b3,f1p,f2p,f3p,f0,intensity
0.025129,175.0,560.9,1047.0,1395.8,2560.7,329.9,253.2,1129.6,2707.5,179.2,66.9
0.027129,254.3,373.7,1225.8,1573.0,2654.1,343.2,257.8,1165.2,2710.4,178.9,67.5
0.029129,281.9,272.8,1405.3,1467.7,2722.2,266.8,265.2,1222.5,2715.2,178.6,68.1
0.031129,296.2,206.2,1417.7,1153.4,2764.1,194.8,274.9,1298.3,2721.7,178.3,68.5
0.033129,306.1,160.8,1364.3,921.1,2795.6,140.5,286.3,1388.6,2729.8,177.9,68.9
0.035129,316.7,135.2,1357.0,839.0,2806.7,113.1,298.7,1488.9,2739.2,177.5,69.3
0.037129,328.8,122.4,1433.0,885.6,2800.8,113.6,311.5,1594,2749.7,177.1,69.6
0.039129,339.1,109.5,1565.0,932.6,2788.5,129.9,323.8,1699,2760.9,176.7,70
0.041129,345.6,93.8,1700.4,935.8,2778.2,150.9,335.1,1799,2772.5,176.3,70.3
0.043129,348.7,78.1,1844.8,939.9,2778.7,171.0,344.7,1889.9,2784,175.9,70.7
0.045129,349.8,64.1,2023.0,920.5,2793.6,190.6,352.3,1968.4,2795,175.5,71
0.047129,349.6,52.1,2173.5,808.7,2812.6,199.0,357.7,2032,2805.2,175,71.3
0.049129,349.1,42.4,2230.2,705.7,2818.5,190.3,360.7,2079.5,2814.1,174.6,71.6
0.051129,348.7,35.4,2234.3,677.4,2814.2,168.7,361.4,2110.8,2821.4,174.2,71.8
0.053129,348.2,31.2,2217.1,721.8,2811.5,140.0,360.2,2126.8,2826.8,173.8,72
0.055129,347.3,28.9,2172.9,843.5,2812.8,112.9,357.3,2129.2,2830.1,173.4,72.1
0.057129,345.8,27.1,2089.3,999.9,2816.0,93.7,353.3,2120.6,2831.1,173.1,72.2
0.059129,344.3,26.2,2001.2,1081.4,2816.8,87.5,348.7,2104.1,2829.9,172.7,72.2
0.061129,343.3,26.6,1959.1,1064.6,2810.8,91.7,344,2082.7,2826.7,172.4,72.3
0.063129,342.7,27.6,1951.9,1000.1,2799.5,95.9,339.7,2059.7,2821.6,172.1,72.2
0.065129,342.2,28.3,1959.6,921.9,2790.6,93.6,336.1,2037.9,2815.1,171.9,72.2
0.067129,341.8,29.3,1974.3,869.8,2789.0,89.2,333.7,2019.7,2807.6,171.6,72.2
0.069129,341.6,31.5,1997.6,856.7,2792.3,88.0,332.5,2006.8,2799.6,171.4,72.2
0.071129,341.8,34.4,2034.9,845.6,2796.3,89.7,332.6,2000.2,2791.8,171.3,72.2
0.073129,342.3,36.5,2074.3,799.1,2799.0,91.7,333.9,2000.2,2784.6,171.2,72.3
0.075129,342.6,37.2,2094.3,743.9,2800.2,90.9,336.2,2006.2,2778.7,171.1,72.3
0.077129,342.4,36.0,2090.9,725.2,2800.8,86.6,339.1,2017.2,2774.4,171,72.4
0.079129,341.7,32.9,2071.8,754.7,2801.8,79.7,342.4,2031.7,2772,171,72.5
0.081129,341.1,29.4,2047.5,807.3,2802.2,73.1,345.6,2047.8,2771.8,171.1,72.6
0.083129,341.3,26.8,2034.9,818.4,2801.6,69.7,348.3,2063.9,2773.6,171.1,72.8
0.085129,342.1,24.9,2047.7,754.0,2800.4,72.3,350.3,2078.1,2777.3,171.2,72.9
0.087129,342.9,22.8,2078.4,665.3,2798.3,83.4,351.5,2089.2,2782.5,171.4,73
0.089129,343.4,20.8,2108.2,618.0,2793.9,104.3,351.6,2096.3,2788.6,171.5,73.2
0.091129,344.1,20.1,2118.6,627.0,2786.1,127.3,350.8,2098.9,2794.9,171.7,73.3
0.093129,345.2,20.1,2104.6,662.7,2777.0,136.1,349.1,2097.5,2800.7,171.9,73.4
0.095129,346.3,19.4,2076.7,696.8,2769.5,128.6,346.9,2092.7,2804.9,172.2,73.5
0.097129,347.1,17.3,2046.1,724.9,2763.8,115.2,344.6,2086,2806.8,172.4,73.5
0.099129,347.7,14.9,2023.3,747.4,2759.7,104.0,342.4,2078.8,2805.6,172.7,73.6
0.101129,348.5,13.2,2021.2,751.2,2757.2,98.2,341,2073.2,2800.6,173,73.7
0.103129,349.6,12.8,2045.4,706.4,2755.3,96.3,340.6,2070.8,2791.3,173.3,73.7
0.105129,351.1,13.5,2082.0,610.8,2752.7,94.2,341.6,2073.4,2777.5,173.5,73.7
0.107129,353.0,15.4,2111.8,523.1,2749.3,93.3,344.3,2082.2,2759.2,173.8,73.6
0.109129,355.4,18.1,2132.3,481.4,2745.1,97.8,348.8,2098,2736.6,174.1,73.5
0.111129,358.1,21.2,2148.4,476.6,2740.7,106.9,355,2121.1,2710.2,174.4,73.4
0.113129,361.3,24.6,2165.2,496.9,2736.1,119.7,362.9,2150.8,2680.9,174.7,73.2
0.115129,365.1,28.6,2187.9,531.6,2729.9,140.6,372.1,2186.2,2649.8,175,73
0.117129,370.0,33.7,2223.2,561.2,2717.9,181.0,382.2,2225.6,2617.9,175.2,72.8
0.119129,376.5,40.3,2278.1,568.0,2688.3,260.5,392.6,2266.8,2586.5,175.5,72.5
0.121129,385.2,48.8,2369.9,575.0,2602.6,399.1,402.8,2307.6,2557.2,175.7,72.3
0.123129,396.4,59.7,2457.8,282.1,2473.7,884.7,412.2,2345.2,2531,175.9,72.1
0.125129,411.1,73.5,2429.6,1026.5,2436.7,209.7,420.1,2377.5,2509.3,176.1,71.8
0.127129,428.9,87.0,2389.4,958.7,2431.2,194.2,426.2,2402.2,2493,176.3,71.7
0.129129,446.9,95.0,2343.5,829.5,2437.5,195.3,430,2417.7,2482.9,176.5,71.5
0.131129,462.0,96.1,2277.0,710.5,2454.3,190.4,431.3,2423,2479.5,176.7,71.4
