time,f1,b1,f2,b2,f3,b3,f1p,f2p,f3p,f0,intensity
0.025100,347.3,42.2,2279.4,68.3,2982.5,48.6,344.6,2318.6,2672.5,186.1,72.3
0.027100,346.2,37.8,2298.0,69.7,2982.7,41.0,344.7,2313.8,2674.9,186,72.2
0.029100,345.2,33.0,2321.6,80.7,2983.6,37.9,345,2306.1,2679,185.9,72.2
0.031100,344.8,28.8,2355.0,100.1,2984.2,37.8,345.3,2295.3,2684.6,185.7,72.1
0.033100,345.2,26.1,2069.5,5189.0,2394.1,120.4,345.8,2281.8,2691.6,185.6,72
0.035100,346.0,24.3,2258.7,4216.5,2434.2,138.9,346.3,2265.6,2700,185.5,71.9
0.037100,347.0,23.0,2352.1,3522.2,2473.9,161.6,346.9,2247,2709.5,185.3,71.8
0.039100,347.9,22.5,2386.7,2970.5,2515.6,191.6,347.6,2226.3,2720.1,185.2,71.7
0.041100,348.8,23.0,2360.1,2573.8,2568.2,221.6,348.3,2203.7,2731.6,185,71.6
0.043100,349.7,24.4,2281.1,2327.6,2631.5,231.0,349.1,2179.5,2743.8,184.8,71.5
0.045100,350.4,25.7,2184.5,2224.5,2687.6,211.3,349.9,2154.2,2756.6,184.7,71.4
0.047100,350.9,26.7,2090.0,2230.0,2732.1,179.5,350.7,2127.9,2769.6,184.5,71.3
0.049100,351.2,27.2,2015.7,2294.4,2763.1,152.4,351.6,2101,2782.8,184.3,71.2
0.051100,351.4,27.4,1965.4,2369.7,2783.5,134.4,352.4,2074,2795.9,184.1,71.1
0.053100,352.1,27.6,1944.8,2479.9,2796.4,128.9,353.2,2047,2808.8,183.9,70.9
0.055100,353.3,28.0,1950.8,2682.6,2806.6,137.3,354,2020.5,2821.3,183.8,70.8
0.057100,354.6,28.2,1960.6,2910.6,2821.6,154.5,354.8,1994.7,2833.2,183.6,70.6
0.059100,355.7,27.6,1947.2,2836.8,2848.6,165.6,355.5,1969.9,2844.3,183.4,70.5
0.061100,356.3,25.9,1912.4,2440.9,2880.2,152.9,356.1,1946.4,2854.6,183.2,70.4
0.063100,356.5,23.8,1882.0,2093.9,2903.0,127.1,356.7,1924.4,2863.9,183,70.4
0.065100,356.6,21.9,1879.3,1960.6,2914.0,108.0,357.2,1904.1,2872.1,182.8,70.3
0.067100,356.5,20.4,1909.6,1977.8,2915.6,100.5,357.6,1885.7,2879.1,182.6,70.3
0.069100,356.5,19.0,1956.0,1946.5,2912.5,97.8,358,1869.3,2885,182.4,70.3
0.071100,356.5,18.0,1970.7,1804.0,2909.1,93.4,358.3,1855,2889.6,182.2,70.3
0.073100,356.6,17.9,1932.3,1659.1,2906.4,84.9,358.5,1842.8,2893,182,70.3
0.075100,356.9,18.5,1854.3,1552.0,2904.8,73.5,358.6,1832.8,2895.1,181.8,70.3
0.077100,357.2,19.3,1776.9,1459.0,2904.0,63.1,358.6,1824.9,2896.1,181.7,70.3
0.079100,357.6,19.7,1727.2,1378.0,2902.4,57.7,358.6,1819,2895.9,181.5,70.2
0.081100,358.2,19.7,1716.0,1346.5,2898.6,60.2,358.5,1815.1,2894.8,181.3,70.2
0.083100,358.8,19.4,1741.4,1382.4,2892.7,70.9,358.4,1813.1,2892.7,181.1,70.2
0.085100,359.1,18.6,1797.0,1466.9,2885.2,88.4,358.2,1812.7,2889.7,180.9,70.1
0.087100,358.8,17.7,1860.7,1571.2,2878.5,106.2,357.9,1813.8,2886.1,180.8,70.1
0.089100,358.2,17.1,1908.2,1706.0,2873.7,121.8,357.6,1816.2,2881.9,180.6,70
0.091100,358.0,17.4,1914.4,1867.0,2870.8,137.3,357.3,1819.7,2877.2,180.4,70
0.093100,358.5,18.3,1873.4,1906.7,2870.8,153.1,356.9,1824.1,2872.3,180.3,69.9
0.095100,359.0,18.7,1815.0,1705.2,2875.0,169.5,356.6,1829.1,2867.2,180.1,69.9
0.097100,359.1,18.2,1774.8,1403.5,2881.6,181.8,356.2,1834.4,2862,180,69.8
0.099100,358.4,17.1,1766.8,1221.7,2884.1,180.2,355.8,1839.9,2856.9,179.8,69.8
0.101100,357.2,16.2,1779.7,1198.2,2881.3,169.0,355.5,1845.4,2852,179.7,69.7
0.103100,356.0,15.6,1802.9,1323.1,2875.6,158.7,355.1,1850.5,2847.4,179.6,69.7
0.105100,355.1,15.1,1829.8,1504.0,2868.2,157.9,354.8,1855.3,2843.2,179.4,69.7
0.107100,354.6,14.5,1874.8,1565.6,2858.6,177.5,354.5,1859.3,2839.5,179.3,69.6
0.109100,354.8,13.9,1939.9,1472.5,2846.3,229.1,354.2,1862.6,2836.3,179.2,69.6
0.111100,354.9,13.5,2007.1,1378.6,2829.4,315.6,353.9,1865,2833.6,179.1,69.5
0.113100,354.7,13.4,2054.1,1345.9,2809.5,405.6,353.7,1866.4,2831.6,178.9,69.5
0.115100,353.8,13.5,2038.5,1326.5,2802.3,411.2,353.5,1866.7,2830.1,178.8,69.4
0.117100,352.7,13.5,1957.5,1232.2,2808.9,327.8,353.3,1865.8,2829.1,178.7,69.4
0.119100,351.8,13.3,1859.5,1032.5,2814.2,231.6,353.1,1863.9,2828.7,178.6,69.3
0.121100,351.6,13.0,1787.1,808.2,2815.5,172.1,353,1860.9,2828.8,178.5,69.2
0.123100,351.6,12.9,1739.6,613.6,2815.9,143.3,352.9,1856.9,2829.3,178.4,69.2
0.125100,351.8,13.2,1720.6,489.7,2816.6,137.1,352.7,1851.9,2830.2,178.2,69.1
0.127100,351.9,13.7,1724.8,423.4,2818.2,139.1,352.6,1846,2831.2,178.1,69.1
0.129100,351.6,14.0,1744.8,391.8,2820.3,135.4,352.5,1839.4,2832.5,178,69
0.131100,351.1,13.8,1771.2,374.2,2823.3,122.5,352.3,1832.3,2833.8,177.9,69
0.133100,350.4,13.3,1796.9,354.0,2828.7,106.2,352.1,1824.7,2835.1,177.8,68.9
0.135100,350.1,12.7,1811.7,330.7,2835.4,90.1,352,1816.9,2836.2,177.6,68.8
0.137100,350.3,12.5,1808.6,322.0,2839.6,77.7,351.7,1809.1,2837.1,177.5,68.8
0.139100,350.4,12.8,1792.5,341.8,2840.0,70.0,351.5,1801.4,2837.7,177.3,68.7
0.141100,350.3,13.3,1774.3,400.4,2836.9,67.3,351.2,1794,2837.8,177.2,68.6
0.143100,350.1,13.8,1768.4,489.3,2832.7,68.0,350.8,1787.2,2837.5,177.1,68.5
0.145100,349.7,13.7,1776.1,585.3,2829.3,68.6,350.5,1781,2836.6,176.9,68.5
0.147100,349.3,13.0,1781.6,634.7,2827.5,65.7,350,1775.8,2835.1,176.7,68.5
0.149100,348.9,12.4,1772.0,616.6,2825.6,59.9,349.5,1771.5,2832.9,176.6,68.4
0.151100,348.6,12.1,1758.7,551.1,2821.3,55.2,349,1768.5,2830.2,176.4,68.4
0.153100,348.7,12.1,1759.8,492.5,2814.7,54.4,348.5,1766.8,2826.7,176.2,68.4
0.155100,348.8,12.1,1773.7,468.2,2808.3,56.6,347.9,1766.4,2822.7,176,68.3
0.157100,348.6,12.0,1794.2,491.5,2803.9,60.4,347.2,1767.6,2818.1,175.8,68.3
0.159100,348.2,12.0,1817.7,575.4,2801.9,65.6,346.6,1770.4,2812.9,175.6,68.2
0.161100,347.7,12.3,1846.1,741.2,2800.9,73.2,345.9,1774.7,2807.3,175.4,68.2
0.163100,347.0,12.9,1872.4,959.2,2799.9,81.2,345.2,1780.6,2801.4,175.2,68.1
0.165100,345.9,13.7,1885.5,1152.5,2799.8,87.9,344.5,1788.1,2795.1,175,68.1
0.167100,344.5,14.3,1877.0,1234.3,2801.5,94.3,343.8,1797.2,2788.7,174.8,68.1
0.169100,343.4,14.5,1854.6,1198.3,2803.1,101.9,343.1,1807.7,2782.3,174.6,68
0.171100,342.6,14.4,1834.5,1110.9,2802.2,110.3,342.5,1819.7,2776,174.4,68
0.173100,342.2,14.9,1830.5,1054.0,2797.7,119.2,341.8,1833,2769.9,174.1,67.9
0.175100,341.8,16.0,1837.1,1068.6,2791.0,127.1,341.3,1847.4,2764.1,173.9,67.8
0.177100,341.5,17.4,1837.7,1121.6,2784.7,134.0,340.8,1863,2758.8,173.6,67.7
0.179100,341.3,18.3,1828.0,1160.5,2782.3,146.4,340.3,1879.4,2754.2,173.4,67.6
0.181100,341.3,18.3,1822.0,1148.4,2786.2,174.5,340,1896.6,2750.2,173.1,67.5
0.183100,341.3,17.7,1833.0,1090.1,2795.7,230.4,339.7,1914.4,2747,172.9,67.4
0.185100,341.0,16.6,1856.4,1016.5,2802.5,295.7,339.5,1932.7,2744.8,172.6,67.2
0.187100,340.4,15.5,1882.2,971.5,2791.6,315.8,339.4,1951.3,2743.5,172.4,67.1
0.189100,339.9,14.3,1918.1,983.1,2767.8,281.9,339.4,1970,2743.2,172.1,66.9
0.191100,339.5,13.3,1990.4,1058.3,2749.9,258.4,339.5,1988.7,2744,171.8,66.8
0.193100,339.1,12.5,2111.5,1155.1,2739.3,264.5,339.6,2007.2,2745.9,171.5,66.7
0.195100,338.7,11.7,2204.7,1145.7,2734.9,275.6,339.9,2025.4,2748.9,171.2,66.6
0.197100,338.9,11.0,2178.2,1045.7,2734.1,262.2,340.3,2043.2,2752.9,170.9,66.5
0.199100,340.2,11.0,2094.9,960.6,2729.9,230.0,340.8,2060.5,2758,170.6,66.4
0.201100,341.8,11.7,2019.1,945.7,2728.2,198.8,341.3,2077.1,2764,170.2,66.4
0.203100,342.6,12.9,1971.5,1002.8,2732.9,179.8,341.9,2093,2770.8,169.9,66.3
0.205100,342.6,13.7,1960.9,1105.4,2737.6,175.2,342.6,2108.1,2778.4,169.6,66.3
0.207100,342.2,13.8,1987.0,1201.9,2736.8,183.5,343.3,2122.3,2786.6,169.2,66.2
0.209100,342.0,13.8,2033.3,1284.2,2731.4,201.9,344.1,2135.6,2795.3,168.8,66.2
0.211100,341.7,14.5,2069.8,1342.0,2723.5,218.0,344.9,2148,2804.4,168.4,66.1
0.213100,340.8,15.7,2083.4,1351.7,2714.4,216.4,345.7,2159.3,2813.7,168,66
0.215100,339.8,17.1,2134.7,1370.4,2704.3,220.9,346.5,2169.8,2823,167.7,65.9
0.217100,339.4,20.6,2464.3,1355.1,2698.5,328.3,347.3,2179.2,2832.2,167.2,65.8
0.219100,339.6,26.3,2458.6,651.7,2844.3,476.8,348.1,2187.6,2841.2,166.8,65.7
0.221100,341.3,39.1,2279.2,509.2,2888.0,321.1,348.8,2195.1,2849.6,166.4,65.5
0.223100,346.4,68.8,2207.9,410.4,2901.0,256.6,349.5,2201.7,2857.5,166,65.4
0.225100,355.1,121.5,2185.3,373.9,2911.5,229.3,350.1,2207.3,2864.7,165.6,65.2
0.227100,364.8,187.3,2177.5,366.6,2920.4,214.9,350.6,2212,2870.9,165.2,64.9
0.229100,370.1,235.4,2175.4,369.3,2926.9,204.5,351.1,2215.8,2876.2,164.8,64.6
0.231100,368.0,249.4,2177.8,375.0,2931.8,195.3,351.4,2218.8,2880.5,164.4,64.1
0.233100,358.2,226.1,2186.8,385.3,2936.3,188.7,351.7,2220.9,2883.5,164,63.5
0.235100,345.4,182.9,2205.1,407.3,2942.2,189.2,351.8,2222.1,2885.4,163.6,62.8
0.237100,334.5,146.3,2236.0,454.5,2951.8,201.3,351.9,2222.5,2886,163.2,62.1
