time,f1,b1,f2,b2,f3,b3,f1p,f2p,f3p,f0,intensity
0.025129,405.5,64.0,1305.7,227.7,2299.4,1002.0,411,1341,2336.6,147,68
0.027129,408.2,63.1,1332.2,220.4,2303.3,1009.4,411.2,1350.1,2336.6,146.8,68.1
0.029129,410.6,60.4,1361.8,197.5,2342.8,963.2,411.6,1364.8,2336.8,146.7,68.2
0.031129,412.9,58.2,1390.4,171.7,2376.0,875.8,412,1384.7,2337.4,146.5,68.2
0.033129,414.9,56.4,1420.3,151.4,2381.4,775.2,412.6,1409.1,2338.7,146.3,68.2
0.035129,416.4,55.1,1454.4,135.6,2370.4,698.8,413.2,1437.4,2340.9,146.2,68.1
0.037129,417.2,54.4,1489.8,117.5,2363.8,648.6,413.8,1468.5,2344.4,146,68.1
0.039129,417.5,54.4,1517.6,100.9,2360.8,621.1,414.4,1501.6,2349.5,145.8,68
0.041129,417.6,55.9,1538.7,94.3,2349.9,615.8,414.9,1535.7,2356.6,145.6,68
0.043129,417.7,59.8,1567.0,96.6,2332.8,627.1,415.3,1570,2365.8,145.5,67.9
0.045129,416.7,62.8,1603.1,98.1,2327.9,643.8,415.6,1603.7,2377.4,145.3,67.8
0.047129,414.6,61.7,1637.9,91.8,2346.4,645.0,415.7,1636,2391.5,145.1,67.8
0.049129,412.7,58.6,1668.3,84.5,2382.5,621.5,415.6,1666.4,2408.1,144.9,67.7
0.051129,411.5,55.7,1697.0,82.8,2422.4,595.6,415.3,1694.4,2427.2,144.8,67.8
0.053129,410.4,50.9,1726.4,83.3,2463.2,578.4,414.8,1719.9,2448.5,144.6,67.8
0.055129,410.1,44.8,1747.4,83.8,2499.7,558.7,414,1742.6,2471.7,144.4,67.9
0.057129,410.6,39.9,1760.6,88.2,2534.3,524.1,412.9,1762.7,2496.5,144.3,68
0.059129,411.2,37.3,1770.1,99.6,2560.8,486.2,411.6,1780.3,2522.5,144.1,68.1
0.061129,411.3,35.0,1779.7,115.4,2576.6,454.6,410,1795.6,2549.2,144,68.2
0.063129,410.7,32.1,1790.7,133.1,2587.3,426.8,408.1,1809.1,2576,143.8,68.3
0.065129,409.1,30.2,1804.6,153.6,2598.2,405.0,405.9,1821,2602.4,143.7,68.3
0.067129,406.4,29.8,1822.1,178.3,2611.1,389.6,403.5,1831.9,2628,143.6,68.3
0.069129,403.7,30.5,1837.8,199.9,2627.4,376.0,400.8,1841.9,2652.2,143.4,68.3
0.071129,400.9,32.4,1852.1,221.0,2651.3,355.9,397.9,1851.6,2674.8,143.3,68.2
0.073129,396.4,35.1,1867.5,244.8,2679.7,324.4,394.7,1861.1,2695.2,143.2,68.1
0.075129,390.5,36.9,1881.3,264.3,2703.1,285.9,391.3,1870.6,2713.4,143.1,68
0.077129,384.7,36.6,1894.5,280.4,2724.8,239.6,387.7,1880.2,2729.2,142.9,67.8
0.079129,380.2,35.1,1908.4,302.0,2743.9,194.5,383.8,1890,2742.4,142.8,67.7
0.081129,376.2,33.1,1922.7,338.1,2756.8,158.6,379.8,1899.7,2753.3,142.6,67.5
0.083129,373.2,31.8,1928.9,379.6,2762.4,138.3,375.5,1909.2,2761.8,142.5,67.4
0.085129,370.9,32.0,1925.3,418.9,2767.1,126.4,371.1,1918.3,2768.2,142.3,67.3
0.087129,368.0,33.3,1917.7,451.3,2775.2,118.8,366.5,1926.8,2772.8,142.1,67.2
0.089129,364.0,34.3,1915.0,475.2,2784.1,115.0,361.8,1934.3,2775.8,142,67.1
0.091129,359.0,34.9,1921.9,507.2,2791.6,115.7,357,1940.7,2777.6,141.8,66.9
0.093129,353.5,36.2,1936.0,554.2,2796.2,120.3,352.1,1945.6,2778.4,141.6,66.8
0.095129,347.6,37.9,1947.8,603.5,2795.7,125.0,347.1,1948.9,2778.7,141.4,66.7
0.097129,341.8,38.2,1948.0,620.6,2788.6,126.1,342.1,1950.6,2778.6,141.1,66.5
0.099129,335.9,37.1,1943.0,597.8,2777.1,123.9,337.1,1950.4,2778.4,140.9,66.4
0.101129,329.6,34.9,1940.3,552.6,2764.2,116.9,332.2,1948.6,2778.3,140.6,66.3
0.103129,324.5,31.8,1939.8,515.1,2756.2,103.9,327.3,1945.2,2778.5,140.4,66.1
0.105129,320.7,28.7,1940.1,502.1,2758.4,90.8,322.6,1940.3,2779,140.1,66
0.107129,317.6,27.4,1938.5,525.3,2770.2,84.0,318.1,1934.3,2779.9,139.8,65.8
0.109129,315.3,28.0,1929.5,587.9,2785.0,80.1,313.7,1927.3,2781.2,139.6,65.7
0.111129,313.5,30.2,1915.8,701.7,2795.4,76.4,309.6,1919.8,2782.9,139.3,65.5
0.113129,310.8,33.7,1913.1,871.5,2797.9,75.4,305.8,1912,2784.9,139,65.3
0.115129,306.3,38.4,1939.4,1110.3,2793.1,81.1,302.3,1904.3,2787.1,138.7,65.1
0.117129,301.3,40.9,1965.8,1324.1,2782.0,96.1,299,1896.8,2789.4,138.4,64.8
0.119129,296.3,39.0,1895.8,1403.7,2768.1,120.8,296.1,1889.8,2791.8,138.1,64.5
0.121129,291.7,35.1,1814.8,1286.2,2766.1,145.2,293.5,1883.4,2794,137.9,64.2
0.123129,287.6,31.9,1809.1,1138.4,2786.8,166.8,291.2,1877.9,2796.2,137.6,63.8
0.125129,285.2,29.2,1852.1,1007.3,2820.1,180.9,289.2,1873.2,2798.2,137.3,63.5
0.127129,284.5,27.2,1897.1,875.8,2839.4,183.3,287.6,1869.3,2799.9,137.1,63
0.129129,283.5,27.1,1911.1,757.6,2835.4,181.6,286.1,1866.2,2801.5,136.8,62.6
0.131129,281.2,30.0,1895.6,711.5,2817.7,185.4,285,1863.9,2802.7,136.6,62.1
0.133129,279.4,36.5,1871.5,754.1,2802.3,207.5,284.1,1862.2,2803.7,136.3,61.5
0.135129,280.6,49.7,1852.5,929.8,2799.7,275.0,283.4,1861,2804.4,136.1,60.8
0.137129,284.9,76.7,1850.3,1283.4,2811.1,413.5,282.9,1860.2,2805,135.9,60.1
0.139129,289.8,133.3,1879.5,1969.0,2816.2,647.4,282.6,1859.8,2805.3,135.8,59.3
0.141129,289.7,229.3,1816.0,3712.4,2741.3,818.0,282.5,1859.6,2805.4,135.6,58.5
