time,f1,b1,f2,b2,f3,b3,f1p,f2p,f3p,f0,intensity
0.025571,540.4,388.8,1861.4,112.2,2519.6,603.7,631.6,1902,2542.9,222,70
0.027571,599.5,354.7,1869.9,118.7,2498.7,587.7,635.9,1897.8,2529.2,222,70.4
0.029571,642.1,321.2,1877.4,129.0,2478.9,599.6,642.9,1891,2507.4,222.1,70.8
0.031571,672.3,297.4,1882.8,141.6,2462.2,626.6,652.3,1882.1,2479.4,222.1,71
0.033571,693.6,284.1,1883.8,154.2,2446.7,654.1,663.9,1871.4,2447.4,222.2,71.1
0.035571,709.1,279.0,1879.2,165.6,2428.3,676.6,677.2,1859.7,2414,222.3,71.2
0.037571,722.1,279.8,1870.6,175.0,2407.5,699.0,691.8,1847.6,2381.8,222.4,71.1
0.039571,734.8,284.2,1860.0,180.7,2390.5,728.1,707.2,1835.6,2353.6,222.5,71
0.041571,747.4,286.9,1847.8,181.3,2379.5,763.3,723,1824.5,2331.9,222.6,70.9
0.043571,758.1,279.9,1833.2,176.1,2367.3,790.8,738.7,1814.6,2318.7,222.7,70.8
0.045571,765.8,260.9,1817.1,165.5,2351.4,795.8,753.9,1806.6,2315.5,222.8,70.8
0.047571,771.2,236.1,1802.5,151.4,2340.1,788.7,768.2,1800.5,2323.2,223,70.8
0.049571,776.2,212.7,1792.0,136.9,2337.5,794.3,781.4,1796.7,2341.8,223.1,70.7
0.051571,781.7,194.2,1786.5,124.4,2342.5,825.2,793.3,1795.1,2370.6,223.3,70.8
0.053571,788.4,181.1,1785.7,114.4,2356.5,880.7,803.7,1795.4,2408.1,223.5,70.8
0.055571,795.9,172.9,1788.5,106.4,2387.4,952.1,812.6,1797.5,2452.4,223.7,70.8
0.057571,804.0,168.9,1793.4,100.1,2447.3,1021.3,820,1800.9,2500.8,223.9,70.8
0.059571,812.2,168.3,1798.6,95.5,2536.0,1050.1,826,1805.1,2550.4,224.1,70.8
0.061571,820.0,169.7,1803.0,93.9,2620.7,1017.6,830.8,1809.5,2598.3,224.3,70.8
0.063571,826.6,171.7,1806.2,96.9,2672.3,969.4,834.5,1813.5,2641.4,224.5,70.7
0.065571,831.7,173.7,1808.4,105.3,2693.8,946.7,837.3,1816.7,2677,224.7,70.7
0.067571,835.5,176.3,1810.0,119.1,2699.9,958.8,839.5,1818.4,2702.9,225,70.6
0.069571,839.0,180.4,1811.3,137.9,2703.3,998.6,841.1,1818.4,2717.3,225.2,70.5
0.071571,843.0,186.5,1812.2,160.9,2709.7,1048.9,842.4,1816.2,2719.3,225.5,70.4
0.073571,847.4,194.1,1811.0,185.2,2717.1,1086.0,843.4,1811.8,2708.7,225.7,70.4
0.075571,851.3,202.2,1806.1,205.3,2717.0,1102.8,844.2,1805.1,2686.1,226,70.3
0.077571,853.5,210.3,1797.7,219.0,2699.7,1133.3,844.9,1796.2,2652.8,226.2,70.3
0.079571,853.7,218.5,1787.7,229.1,2658.3,1228.7,845.3,1785.3,2610.7,226.5,70.3
0.081571,852.8,226.6,1777.9,237.3,2584.5,1394.9,845.4,1772.7,2562.4,226.7,70.3
0.083571,852.8,235.4,1769.5,241.7,2489.9,1574.9,845.1,1758.9,2510.7,227,70.3
0.085571,854.3,246.1,1762.3,242.4,2411.8,1737.5,844.2,1744.1,2458.5,227.2,70.3
0.087571,855.5,258.2,1754.0,244.3,2363.7,1872.9,842.4,1728.9,2408.6,227.5,70.3
0.089571,853.3,270.3,1740.8,253.0,2331.9,1930.7,839.6,1713.7,2363.8,227.7,70.3
0.091571,845.8,280.6,1719.4,268.6,2304.5,1867.1,835.7,1698.8,2326.3,227.9,70.3
0.093571,833.3,287.4,1689.4,281.7,2291.8,1713.3,830.4,1684.3,2297.7,228.2,70.3
0.095571,818.3,289.9,1657.5,279.2,2290.8,1559.1,823.7,1670.6,2279.1,228.4,70.4
0.097571,803.3,289.6,1633.5,261.1,2289.0,1461.0,815.4,1657.7,2270.5,228.6,70.4
0.099571,790.1,288.2,1619.3,237.3,2290.8,1412.6,805.5,1645.4,2271.6,228.7,70.5
0.101571,778.2,285.6,1610.7,214.2,2308.5,1381.5,794.1,1633.7,2281.2,228.9,70.5
0.103571,765.9,279.8,1603.7,194.8,2334.9,1336.8,781.1,1622.2,2297.5,229.1,70.6
0.105571,751.8,269.5,1596.3,181.1,2346.4,1266.8,766.9,1610.8,2318.2,229.2,70.7
0.107571,736.5,256.4,1588.5,174.5,2334.0,1185.7,751.4,1599,2340.9,229.3,70.7
0.109571,722.0,243.5,1581.1,174.9,2314.0,1115.5,735,1586.5,2362.9,229.4,70.7
0.111571,710.0,233.5,1574.5,180.6,2313.5,1072.8,717.9,1573,2381.8,229.5,70.7
0.113571,700.7,227.0,1567.7,188.7,2352.9,1045.2,700.4,1558.4,2395.1,229.6,70.6
0.115571,691.6,220.2,1556.0,197.3,2409.1,980.1,682.8,1542.4,2401.3,229.7,70.6
0.117571,679.0,208.1,1534.8,205.6,2430.6,885.8,665.3,1525.1,2399,229.7,70.4
0.119571,663.0,190.8,1507.3,210.3,2418.6,802.5,648.2,1506.5,2387.7,229.7,70.3
0.121571,646.8,173.6,1483.3,214.0,2397.2,743.1,631.9,1486.8,2367.5,229.7,70.1
0.123571,632.3,161.5,1468.1,225.1,2371.4,720.2,616.4,1466.5,2339.2,229.7,69.8
0.125571,619.4,155.8,1459.1,248.4,2335.5,737.4,602.1,1446,2304.4,229.7,69.5
0.127571,607.1,156.4,1451.7,284.3,2281.9,789.8,589.1,1425.8,2265,229.6,69.1
0.129571,594.9,163.4,1443.1,333.1,2204.6,854.6,577.6,1406.5,2223.5,229.5,68.7
0.131571,582.0,177.1,1429.3,391.8,2119.5,882.5,567.7,1388.9,2182.3,229.5,68.2
0.133571,567.6,196.2,1401.3,436.0,2069.6,838.5,559.5,1373.4,2144.2,229.4,67.7
0.135571,550.8,218.3,1360.7,428.2,2071.1,751.0,553.1,1360.7,2111.6,229.3,67
0.137571,533.6,245.3,1327.0,384.7,2092.0,680.6,548.4,1351.3,2086.6,229.2,66.3
0.139571,518.8,286.9,1304.7,349.4,2110.0,658.5,545.6,1345.5,2071,229,65.6
0.141571,505.8,354.1,1286.4,334.3,2125.9,681.8,544.7,1343.5,2065.6,228.9,64.8
