time,f1,b1,f2,b2,f3,b3,f1p,f2p,f3p,f0,intensity
0.025478,465.1,32.5,1218.8,146.3,2913.3,217.1,483.2,1253.9,2902.7,0,68.6
0.027478,476.7,32.4,1226.9,113.6,2916.1,197.9,487.1,1259.7,2905.2,0,68.6
0.029478,485.3,32.2,1236.5,101.0,2917.4,170.9,493.6,1269.4,2909,0,68.5
0.031478,494.2,33.2,1255.4,102.5,2917.7,149.7,502.4,1282.7,2914.1,0,68.4
0.033478,508.1,37.9,1294.2,117.2,2919.2,145.1,513.2,1299.4,2919.9,0,68.2
0.035478,531.6,46.3,1352.7,131.4,2925.0,148.5,525.9,1319.5,2926,0,68
0.037478,559.2,53.1,1396.9,128.1,2932.9,139.5,539.9,1342.6,2932.1,0,67.8
0.039478,577.1,52.5,1417.0,117.4,2938.2,123.7,554.9,1368.3,2937.6,0,67.6
0.041478,585.0,45.7,1425.1,107.6,2940.3,109.5,570.6,1396.4,2942.1,0,67.5
0.043478,589.4,38.0,1431.1,105.3,2937.9,102.9,586.4,1426.3,2945.1,0,67.3
0.045478,598.0,35.2,1452.7,121.6,2926.9,114.2,602,1457.7,2946.5,0,67.2
0.047478,614.5,40.7,1502.7,143.7,2911.6,144.8,617.1,1490.1,2946.1,0,67
0.049478,634.9,49.9,1538.4,134.3,2907.3,156.5,631.1,1523,2943.7,0,66.8
0.051478,653.1,56.4,1555.1,115.6,2911.0,149.3,643.9,1555.9,2939.4,0,66.8
0.053478,664.1,57.0,1568.6,101.1,2917.6,130.1,655.2,1588.2,2933.5,0,66.8
0.055478,669.2,55.9,1590.3,95.7,2926.6,106.2,664.6,1619.7,2926.2,0,66.9
0.057478,671.1,59.0,1638.2,102.7,2941.0,87.2,672.2,1649.8,2917.9,0,67.2
0.059478,670.9,64.1,1701.3,106.0,2956.5,78.5,677.8,1678.3,2909.2,0,67.6
0.061478,670.9,66.2,1731.7,99.2,2964.1,78.8,681.4,1704.8,2900.5,0,68.2
0.063478,672.8,66.3,1738.2,95.1,2963.0,84.4,682.9,1729.2,2892.4,0,68.7
0.065478,674.9,67.5,1740.9,100.3,2957.2,98.6,682.5,1751.3,2885.5,0,69.1
0.067478,675.4,74.8,1751.7,123.5,2918.5,1594.6,680.3,1771.4,2880.2,0,69.5
0.069478,672.2,87.2,1772.6,160.9,2826.7,1231.7,676.3,1789.3,2876.9,0,69.9
0.071478,664.4,92.9,1791.0,185.9,2782.0,1078.6,670.8,1805.5,2875.9,0,70.4
0.073478,653.8,84.7,1797.4,190.5,2790.3,1064.1,663.9,1820.1,2877.3,0,71
0.075478,645.0,71.2,1798.0,192.8,2829.6,1174.6,655.8,1833.7,2881.2,0,71.6
0.077478,641.6,61.2,1814.4,201.5,2867.1,1407.0,646.7,1846.7,2887.2,0,72.3
0.079478,642.3,54.7,1863.6,184.3,2914.7,1815.0,636.8,1859.5,2895.2,0,72.9
0.081478,641.8,50.7,1903.7,129.9,2942.6,76.7,626.3,1872.7,2904.7,0,73.3
0.083478,635.6,51.2,1917.1,88.0,2940.7,60.6,615.2,1886.6,2915.1,0,73.7
0.085478,622.8,57.8,1918.6,70.2,2934.9,50.3,603.7,1901.8,2925.7,0,74
0.087478,604.5,69.9,1919.3,67.2,2929.1,46.9,592,1918.6,2935.9,0,74.2
0.089478,580.0,85.1,1925.4,75.2,2926.1,52.8,580,1937.1,2944.9,183.5,74.4
0.091478,553.4,92.8,1943.5,91.2,2929.2,73.5,567.9,1957.4,2952,183.8,74.7
0.093478,535.3,86.9,1974.9,104.0,2940.7,111.0,555.7,1979.4,2956.6,184.1,75
0.095478,529.0,75.9,2013.8,106.1,2957.2,155.7,543.5,2002.9,2958.2,184.4,75.3
0.097478,529.3,67.4,2050.1,103.3,2968.6,189.3,531.1,2027.4,2956.4,184.8,75.6
0.099478,529.2,61.9,2080.3,103.4,2978.5,214.2,518.8,2052.4,2950.9,185.1,75.8
0.101478,525.4,57.7,2106.3,112.5,2993.9,239.2,506.4,2077,2941.7,185.5,76
0.103478,516.8,55.0,2128.6,140.8,3004.4,258.7,493.9,2100.5,2929,185.9,76.1
0.105478,501.2,54.2,2155.6,220.2,2991.3,280.6,481.4,2121.8,2913,186.3,76.1
0.107478,479.0,57.4,2199.9,428.1,2943.4,332.3,469,2139.9,2894.3,186.7,76.1
0.109478,453.2,67.2,2260.4,929.8,2824.8,378.2,456.5,2153.9,2873.5,187.1,76.1
0.111478,426.3,81.3,2182.6,1530.0,2754.2,196.8,444.1,2162.6,2851.3,187.5,76.2
0.113478,404.3,89.3,2079.0,1640.2,2753.4,109.4,431.8,2165.1,2828.6,187.9,76.3
0.115478,390.5,87.5,1998.4,1524.8,2754.3,72.1,419.7,2160.8,2806.3,188.2,76.4
0.117478,383.4,81.4,1954.2,1533.9,2751.8,56.8,407.8,2148.8,2785.2,188.6,76.7
0.119478,381.4,78.7,1962.5,1888.7,2746.3,57.1,396.2,2129,2766.1,189,76.9
0.121478,380.7,79.6,2009.1,2851.8,2737.8,66.0,384.9,2101,2749.8,189.4,77
0.123478,377.4,78.5,2027.1,4280.0,2730.5,80.7,374.1,2065.1,2736.8,189.7,77.2
0.125478,370.3,72.4,2095.7,4074.7,2728.7,107.1,363.8,2021.6,2727.5,190.1,77.3
0.127478,361.2,63.9,2159.6,3047.1,2733.6,149.9,354.1,1971.4,2722.2,190.4,77.4
0.129478,353.6,57.8,2105.9,2445.2,2745.1,194.6,344.9,1915.3,2720.9,190.7,77.4
0.131478,348.5,55.5,1974.2,2167.4,2761.8,210.5,336.5,1854.6,2723.4,191,77.4
0.133478,344.4,55.3,1819.5,2009.3,2780.3,184.3,328.7,1790.8,2729.4,191.3,77.4
0.135478,340.1,56.1,1710.1,1945.6,2790.6,150.2,321.7,1725.6,2738.3,191.6,77.3
0.137478,335.3,57.7,1654.3,2004.8,2790.9,134.9,315.4,1660.6,2749.4,191.8,77.3
0.139478,329.3,60.0,1615.2,2172.7,2783.8,124.0,309.9,1597.7,2762,192.1,77.2
0.141478,321.9,61.9,1577.5,2333.9,2777.9,99.7,305.1,1538.7,2775.3,192.3,77.1
0.143478,312.4,63.4,1521.8,2503.5,2779.2,70.8,301.1,1485.4,2788.3,192.5,77
0.145478,301.5,65.8,1417.8,2767.7,2783.9,51.7,297.9,1439.3,2800.3,192.7,76.8
0.147478,289.8,68.2,1303.4,3032.2,2787.8,44.1,295.4,1401.9,2810.4,192.9,76.7
0.149478,277.1,68.4,1287.6,3122.7,2791.1,46.7,293.6,1374.3,2818.2,193,76.6
0.151478,266.0,67.4,1344.1,3105.7,2796.4,58.3,292.5,1357.4,2823,193.2,76.5
0.153478,258.6,67.7,1342.0,3194.2,2803.8,73.0,292.2,1351.8,2824.7,193.3,76.4
