time,f1,b1,f2,b2,f3,b3,f1p,f2p,f3p,f0,intensity
0.025213,428.4,229.3,1222.4,711.6,2334.1,262.4,476.4,1236.3,2507.8,233.8,65.9
0.027213,459.4,244.1,1303.4,878.2,2411.2,296.8,475.2,1230.8,2507,232.5,67.3
0.029213,479.7,236.2,1311.4,824.7,2485.8,262.7,473.4,1221.8,2505.6,231.1,68.4
0.031213,484.7,218.8,1247.7,692.4,2525.5,207.0,471,1209.8,2503.7,229.8,69.2
0.033213,483.1,199.5,1195.2,557.6,2543.9,173.8,468,1195,2501.4,228.4,70
0.035213,478.4,181.3,1153.9,460.1,2557.1,163.6,464.7,1178.2,2498.7,227.1,70.6
0.037213,472.2,163.4,1114.8,382.5,2569.1,163.8,461.1,1159.8,2495.7,225.7,71.1
0.039213,466.4,146.8,1083.8,320.8,2579.4,172.6,457.5,1140.6,2492.3,224.4,71.4
0.041213,462.0,135.6,1066.9,283.7,2590.4,1494.1,453.9,1121.2,2488.5,223,71.7
0.043213,458.1,130.9,1060.9,267.6,2522.4,1123.2,450.6,1102.3,2484.2,221.7,71.9
0.045213,453.3,129.1,1056.7,255.7,2436.2,875.1,447.6,1084.4,2479.2,220.5,72
0.047213,447.9,126.5,1049.5,240.0,2382.4,735.3,445.1,1068.3,2473.4,219.2,72.1
0.049213,443.7,123.6,1040.8,229.1,2386.3,669.3,443.1,1054.3,2466.4,218.1,72.2
0.051213,440.7,119.8,1033.2,228.8,2429.5,642.1,441.8,1042.8,2457.8,216.9,72.3
0.053213,438.0,113.0,1028.3,234.4,2485.3,634.5,441.1,1034.1,2447.4,215.8,72.5
0.055213,435.2,103.1,1027.6,240.1,2539.9,643.4,441,1028.4,2434.7,214.8,72.6
0.057213,432.7,93.6,1031.9,248.3,2562.2,641.8,441.5,1025.6,2419.4,213.8,72.7
0.059213,431.6,89.8,1040.5,271.4,2514.5,614.6,442.5,1025.7,2401.1,212.9,72.7
0.061213,432.4,94.4,1051.4,321.4,2428.5,587.2,443.9,1028.5,2379.5,212,72.6
0.063213,435.4,107.0,1063.0,402.0,2335.0,561.3,445.6,1033.8,2354.5,211.2,72.4
0.065213,439.5,125.0,1074.9,503.4,2245.2,531.4,447.4,1041,2325.9,210.4,72.1
0.067213,443.8,146.5,1086.6,611.8,2177.7,507.4,449.2,1049.9,2293.9,209.7,71.8
0.069213,448.4,171.5,1098.1,732.2,2140.2,516.0,450.9,1059.9,2258.7,209,71.4
0.071213,453.2,195.3,1105.0,861.2,2117.9,551.8,452.2,1070.6,2220.7,208.4,71
0.073213,457.1,211.3,1105.2,974.9,2098.5,585.0,453.1,1081.6,2180.5,207.7,70.7
0.075213,461.0,220.6,1102.4,1067.5,2081.6,606.1,453.5,1092.3,2139,207.2,70.3
0.077213,466.1,229.4,1100.7,1158.0,2067.8,622.5,453.3,1102.5,2096.9,206.6,70
0.079213,471.8,240.3,1102.7,1251.4,2053.6,635.8,452.3,1111.8,2055.5,206.1,69.8
0.081213,472.6,249.5,1089.3,1245.8,2029.8,618.6,450.6,1119.9,2015.8,205.6,69.6
0.083213,464.4,251.4,1068.4,1093.1,2002.4,557.2,448.3,1126.8,1979.2,205.2,69.4
0.085213,450.4,242.3,1065.8,915.7,1977.5,479.4,445.2,1132.4,1946.8,204.7,69.4
0.087213,436.9,225.8,1079.0,790.1,1955.7,404.9,441.4,1136.7,1919.9,204.3,69.3
0.089213,427.1,208.2,1103.2,716.3,1943.6,344.6,437.2,1139.7,1899.6,203.9,69.3
0.091213,420.5,192.6,1135.1,670.6,1946.4,307.1,432.4,1141.7,1886.9,203.5,69.3
0.093213,415.6,179.0,1165.0,628.1,1962.5,292.1,427.4,1142.8,1882.4,203.1,69.3
0.095213,410.8,166.2,1179.9,569.3,1986.6,290.7,422.1,1143.3,1886.9,202.7,69.2
0.097213,405.5,154.1,1176.7,492.3,2010.4,293.9,416.8,1143.5,1900.4,202.4,69.2
0.099213,400.8,145.5,1166.1,418.8,2024.9,300.3,411.4,1143.6,1923.1,202,69.2
0.101213,397.7,143.4,1157.9,368.5,2027.6,307.7,406.3,1143.9,1954.4,201.6,69.2
0.103213,396.1,147.1,1153.3,343.8,2024.2,309.2,401.4,1144.7,1993.7,201.3,69.2
0.105213,395.0,153.4,1150.7,337.4,2021.6,302.8,396.8,1146.2,2040.1,200.9,69.2
0.107213,394.1,159.5,1149.1,343.9,2023.8,299.7,392.6,1148.4,2092.3,200.6,69.2
0.109213,393.2,166.3,1148.3,364.4,2032.9,317.8,388.9,1151.5,2148.8,200.3,69.2
0.111213,392.9,174.9,1148.3,401.1,2051.0,372.3,385.7,1155.6,2207.9,199.9,69.3
0.113213,393.2,183.1,1151.0,449.2,2081.7,474.3,382.8,1160.6,2267.9,199.6,69.3
0.115213,393.2,185.0,1158.4,490.2,2132.7,625.5,380.4,1166.5,2327,199.2,69.4
0.117213,391.3,176.4,1170.1,499.8,2216.4,813.1,378.4,1173.1,2383.2,198.9,69.5
0.119213,387.1,159.3,1184.5,474.0,2340.6,1008.2,376.7,1180.2,2435,198.6,69.7
0.121213,381.8,140.3,1201.1,434.5,2494.1,1167.7,375.3,1187.8,2480.8,198.2,69.8
0.123213,376.9,125.2,1218.4,403.9,2644.0,1245.4,374,1195.5,2519.3,197.9,70
0.125213,372.8,115.0,1231.7,388.8,2744.7,1209.9,372.9,1203.2,2549.5,197.6,70.1
0.127213,369.0,105.2,1237.6,381.9,2773.1,1052.0,371.8,1210.7,2570.8,197.2,70.3
0.129213,365.4,93.6,1235.9,381.2,2737.1,786.7,370.7,1217.8,2582.7,196.9,70.4
0.131213,362.5,81.9,1231.9,393.9,2654.8,498.2,369.6,1224.3,2585.5,196.6,70.6
0.133213,360.3,73.6,1226.7,421.7,2594.8,359.6,368.4,1230.1,2579.5,196.3,70.7
0.135213,358.5,69.0,1215.3,452.9,2567.6,283.5,367.1,1235.2,2565.5,195.9,70.8
0.137213,357.1,67.3,1199.1,474.0,2547.8,238.4,365.7,1239.5,2544.7,195.6,71
0.139213,356.3,67.6,1189.4,494.1,2516.7,211.7,364.2,1243,2518.5,195.3,71.1
0.141213,356.4,68.8,1192.4,531.2,2466.6,187.6,362.7,1245.8,2488.4,195,71.2
0.143213,357.1,69.2,1202.5,586.0,2410.4,153.6,361.2,1247.9,2456.2,194.7,71.4
0.145213,358.0,67.4,1214.7,656.8,2366.7,118.8,359.7,1249.3,2423.7,194.4,71.6
0.147213,358.8,63.7,1228.9,744.4,2340.0,93.7,358.3,1250.3,2392.6,194.1,71.8
0.149213,359.5,58.4,1245.1,843.4,2326.4,77.9,357.1,1251,2364.6,193.8,72
0.151213,360.2,52.6,1263.2,954.8,2321.6,68.7,356.1,1251.3,2341.2,193.5,72.2
0.153213,361.0,47.4,1282.8,1077.2,2321.4,63.3,355.4,1251.5,2323.5,193.3,72.5
0.155213,362.0,43.4,1303.9,1205.8,2322.9,59.4,354.9,1251.6,2312.5,193,72.7
0.157213,363.2,40.5,1330.0,1367.6,2325.4,57.5,354.8,1251.6,2308.8,192.8,72.9
