time,f1,b1,f2,b2,f3,b3,f1p,f2p,f3p,f0,intensity
0.025077,295.5,600.4,1470.4,252.0,2383.8,207.7,349.1,1566.5,2409.3,185.6,64.5
0.027077,310.4,496.5,1470.3,267.5,2380.3,151.7,350,1567.4,2407.3,185.8,65.6
0.029077,324.4,412.7,1484.5,313.9,2376.0,135.3,351.4,1568.7,2404.1,186,66.6
0.031077,342.7,340.5,1522.8,396.7,2368.3,145.3,353.3,1570.5,2399.7,186.3,67.6
0.033077,362.6,274.3,1598.4,490.0,2358.7,183.1,355.7,1572.6,2394.2,186.5,68.5
0.035077,376.2,213.3,1673.5,472.0,2356.0,248.0,358.4,1575.1,2387.7,186.8,69.4
0.037077,382.4,171.5,1681.7,345.8,2377.9,319.1,361.5,1577.7,2380.5,187,70.2
0.039077,387.0,153.0,1665.3,237.1,2450.4,387.9,364.9,1580.4,2372.7,187.3,70.9
0.041077,392.2,147.3,1651.1,178.1,2574.7,387.3,368.4,1583,2364.4,187.6,71.5
0.043077,396.6,143.3,1638.8,165.5,2518.9,2214.9,372.1,1585.5,2355.8,187.9,72.1
0.045077,398.1,136.5,1624.0,189.3,2273.3,1590.7,375.7,1587.7,2347.2,188.1,72.6
0.047077,397.4,131.8,1604.6,221.1,2219.5,1195.0,379.3,1589.5,2338.6,188.4,73
0.049077,395.1,131.4,1588.8,238.4,2230.7,992.1,382.7,1590.9,2330.3,188.6,73.4
0.051077,392.6,133.7,1578.8,245.7,2246.1,892.6,385.9,1591.7,2322.3,188.9,73.8
0.053077,391.5,137.3,1570.7,250.1,2251.9,883.6,388.8,1591.8,2314.9,189.1,74.1
0.055077,392.3,141.2,1564.1,245.3,2264.7,988.8,391.3,1591.4,2308,189.3,74.4
0.057077,394.3,142.2,1560.8,220.9,2308.7,1179.8,393.4,1590.2,2301.8,189.5,74.7
0.059077,396.1,138.6,1560.3,189.3,2374.9,1308.2,395,1588.5,2296.2,189.7,74.9
0.061077,397.0,132.5,1560.4,165.5,2412.1,1271.4,396.2,1586,2291.4,189.9,75.1
0.063077,396.9,126.4,1558.5,150.0,2394.8,1143.6,396.9,1583.1,2287.2,190,75.2
0.065077,395.7,121.2,1554.6,139.1,2347.1,1032.4,397.1,1579.5,2283.8,190.1,75.3
0.067077,393.2,116.3,1551.9,130.0,2303.5,977.7,396.8,1575.6,2280.9,190.2,75.4
0.069077,390.1,112.2,1552.7,122.5,2277.3,984.8,396.1,1571.3,2278.5,190.3,75.4
0.071077,387.4,110.1,1557.1,117.7,2267.2,1052.3,394.9,1566.7,2276.5,190.3,75.5
0.073077,385.0,110.1,1562.7,116.7,2262.2,1144.8,393.4,1561.9,2274.9,190.3,75.5
0.075077,381.7,109.0,1565.1,120.1,2245.8,1187.0,391.4,1557.1,2273.5,190.3,75.5
0.077077,377.3,104.4,1561.8,125.6,2224.0,1153.9,389.2,1552.2,2272.2,190.2,75.6
0.079077,372.9,98.0,1554.8,128.3,2215.8,1117.4,386.7,1547.3,2271,190.1,75.6
0.081077,369.6,91.8,1548.3,129.6,2216.6,1131.7,383.9,1542.6,2269.8,190,75.6
0.083077,367.7,86.5,1544.4,135.2,2227.2,1191.8,381.1,1538,2268.5,189.9,75.7
0.085077,367.2,82.7,1543.3,149.5,2257.5,1282.8,378,1533.5,2267,189.7,75.7
0.087077,367.5,79.7,1544.1,175.4,2268.2,1341.9,375,1529.1,2265.4,189.5,75.8
0.089077,367.9,76.2,1544.5,208.3,2250.4,1295.1,371.9,1524.8,2263.7,189.2,75.8
0.091077,367.9,72.1,1542.6,237.4,2232.2,1210.1,368.7,1520.5,2261.9,189,75.8
0.093077,367.1,67.7,1536.9,258.5,2222.6,1138.3,365.7,1516.2,2260.1,188.6,75.8
0.095077,365.8,63.7,1529.2,274.2,2227.9,1106.8,362.6,1511.8,2258.3,188.3,75.8
0.097077,364.2,61.0,1522.8,291.2,2250.4,1124.8,359.6,1507.2,2256.6,187.9,75.8
0.099077,362.8,59.7,1516.9,320.7,2286.5,1160.0,356.7,1502.2,2255.3,187.5,75.7
0.101077,361.8,59.3,1504.1,380.0,2300.6,1123.7,353.8,1496.7,2254.3,187.1,75.6
0.103077,361.1,61.0,1478.7,481.3,2266.8,1021.6,351,1490.8,2253.8,186.6,75.5
0.105077,361.0,66.3,1449.2,595.2,2239.5,964.0,348.3,1484.2,2254,186.1,75.3
0.107077,361.1,73.2,1443.5,640.3,2231.7,1025.0,345.6,1476.8,2254.9,185.5,75.1
0.109077,360.8,79.8,1468.2,569.5,2251.0,1260.3,342.9,1468.7,2256.8,184.9,74.8
0.111077,359.9,85.9,1482.8,444.7,2323.1,1606.6,340.2,1459.8,2259.7,184.3,74.5
0.113077,357.7,90.5,1474.1,350.2,2403.4,1830.1,337.5,1450.2,2263.7,183.7,74.1
0.115077,353.0,90.7,1449.9,303.8,2385.7,1676.7,334.8,1439.7,2268.8,183,73.7
0.117077,345.9,86.4,1411.7,283.1,2325.0,1209.9,332.1,1428.6,2275.1,182.2,73.1
0.119077,338.0,81.2,1372.5,256.1,2298.1,796.4,329.3,1416.9,2282.6,181.5,72.6
0.121077,329.9,79.2,1349.4,227.3,2291.7,567.2,326.5,1404.8,2291.1,180.7,71.9
0.123077,321.6,81.9,1343.3,212.3,2295.2,474.0,323.7,1392.4,2300.7,179.8,71.2
0.125077,312.4,89.3,1347.5,210.9,2307.3,452.8,320.8,1379.9,2311.2,178.9,70.5
0.127077,301.4,99.1,1356.7,208.4,2320.3,446.5,318,1367.7,2322.5,178,69.6
0.129077,288.7,110.0,1366.4,193.0,2316.7,416.6,315.1,1355.9,2334.4,177.1,68.8
0.131077,276.4,125.3,1372.1,175.8,2295.1,366.1,312.3,1344.9,2346.8,176.1,68
0.133077,267.2,146.2,1369.6,170.0,2275.7,323.5,309.5,1334.8,2359.3,175.1,67.1
0.135077,264.2,166.8,1356.5,173.3,2271.3,307.8,306.8,1326.1,2371.7,174.1,66.4
0.137077,269.7,177.4,1337.0,176.5,2282.0,323.6,304.3,1318.9,2384,173,65.6
0.139077,282.0,170.6,1320.2,178.5,2298.4,369.1,301.9,1313.5,2395.7,171.9,65
0.141077,296.3,150.4,1309.3,187.6,2310.6,435.8,299.7,1310.1,2406.6,170.8,64.3
0.143077,307.9,127.0,1303.6,212.8,2322.7,509.9,297.7,1308.9,2416.7,169.7,63.7
0.145077,315.2,107.0,1303.9,261.0,2351.0,591.4,296,1310,2425.6,168.5,63.2
0.147077,318.9,92.5,1313.7,330.8,2407.6,694.3,294.5,1313.6,2433.2,167.4,62.8
0.149077,319.9,81.4,1336.2,403.3,2509.9,823.2,293.4,1319.7,2439.5,166.2,62.5
0.151077,318.6,69.9,1369.9,457.4,2669.2,924.4,292.5,1328.2,2444.2,165.1,62.3
0.153077,316.1,58.7,1407.2,496.5,2750.5,880.8,292,1339,2447.4,163.9,62.3
0.155077,313.2,52.2,1433.9,537.7,2593.8,823.0,291.7,1352,2449.1,162.7,62.5
0.157077,310.4,52.5,1441.4,610.5,2481.3,725.7,291.8,1367,2449.2,161.6,62.7
0.159077,308.0,59.0,1439.2,759.0,2425.3,659.1,292.1,1383.8,2448,160.4,62.9
0.161077,305.3,69.1,1423.7,1012.6,2393.5,629.8,292.7,1402,2445.4,159.3,63
0.163077,301.3,78.8,1363.1,1291.0,2370.5,589.8,293.5,1421.2,2441.7,158.2,63.1
0.165077,295.2,83.8,1292.2,1388.3,2373.9,550.7,294.5,1441.1,2437.1,157.1,63.1
0.167077,287.4,81.5,1304.2,1293.9,2409.5,570.1,295.6,1461.3,2431.8,156,63.1
0.169077,280.6,73.0,1386.7,1075.2,2464.6,596.1,296.8,1481.2,2425.9,155,62.9
0.171077,278.3,65.0,1451.1,839.8,2466.5,500.9,298.1,1500.6,2419.8,154,62.7
0.173077,281.3,64.9,1479.3,710.8,2424.6,375.3,299.3,1518.9,2413.7,153,62.5
0.175077,287.2,76.1,1478.2,696.7,2385.3,299.6,300.5,1535.7,2407.8,152.1,62.2
0.177077,293.7,98.7,1456.9,765.7,2358.2,267.5,301.6,1550.6,2402.4,151.2,61.8
0.179077,299.8,125.9,1431.9,885.5,2344.4,262.4,302.6,1563.4,2397.7,150.3,61.5
0.181077,304.0,137.5,1423.7,1034.2,2341.7,277.6,303.4,1573.6,2393.8,149.5,61.2
0.183077,305.3,120.2,1460.8,1225.1,2347.9,320.9,304,1581.1,2390.9,148.7,60.9
0.185077,306.3,96.4,1660.8,1593.6,2371.9,425.0,304.3,1585.6,2389.1,148,60.7
0.187077,309.9,88.8,2276.6,881.7,2480.7,725.5,304.5,1587.2,2388.5,147.3,60.7
