time,f1,b1,f2,b2,f3,b3,f1p,f2p,f3p,f0,intensity
0.025102,337.1,13.7,2317.0,117.5,2398.3,1022.6,345.8,2292.7,2263.6,171.7,73.2
0.027102,341.8,14.7,2308.0,847.3,2325.1,124.8,346.2,2276.8,2272.6,171.7,73.7
0.029102,346.2,15.3,2239.4,784.3,2331.4,117.5,346.8,2251,2286.6,171.8,74.3
0.031102,349.5,15.9,2192.7,762.6,2326.9,104.4,347.6,2216.3,2304.5,171.9,75
0.033102,351.7,17.2,2165.5,761.6,2314.7,93.8,348.6,2174.2,2324.5,172,75.7
0.035102,353.4,19.4,2135.1,773.7,2302.8,85.4,349.9,2126.2,2344.9,172.1,76.3
0.037102,354.5,22.5,2091.8,797.0,2295.2,80.3,351.3,2074.1,2363.5,172.1,76.9
0.039102,355.8,26.4,2035.1,824.2,2290.0,79.2,353,2019.7,2378.4,172.2,77.3
0.041102,357.3,31.2,1971.5,825.8,2287.0,84.2,354.8,1964.7,2387.9,172.3,77.7
0.043102,358.8,35.3,1908.4,769.6,2290.4,93.5,356.7,1910.7,2390.5,172.4,77.9
0.045102,360.4,37.9,1832.6,649.0,2304.9,100.3,358.7,1858.9,2385.3,172.5,78.1
0.047102,361.7,38.1,1760.2,506.9,2325.8,100.4,360.7,1810.5,2371.7,172.5,78.3
0.049102,362.7,37.0,1707.7,378.1,2346.4,105.3,362.8,1766,2349.9,172.6,78.4
0.051102,364.0,36.2,1680.8,281.3,2363.6,133.4,364.8,1725.9,2320.5,172.7,78.4
0.053102,365.3,36.9,1672.3,224.8,2375.3,204.9,366.8,1690,2285,172.8,78.4
0.055102,366.7,39.6,1670.0,195.2,2377.7,369.0,368.6,1658.2,2244.9,172.8,78.3
0.057102,368.0,44.6,1668.5,187.6,2342.6,666.5,370.2,1629.9,2202.5,172.9,78.3
0.059102,369.3,51.5,1661.5,193.1,2216.8,983.4,371.6,1604.3,2160.1,172.9,78.2
0.061102,370.3,56.5,1639.6,209.9,2097.4,1040.2,372.7,1580.6,2120.3,173,78.2
0.063102,371.3,58.6,1600.2,231.0,2049.6,938.8,373.6,1558.2,2085.4,173,78.1
0.065102,372.4,58.8,1554.5,242.4,2043.0,831.1,374.1,1536.1,2057.9,173,78.1
0.067102,373.5,59.4,1520.0,252.4,2036.6,776.8,374.4,1513.9,2039.5,173.1,78
0.069102,374.6,61.6,1491.5,273.5,2021.1,760.7,374.3,1491.1,2031.8,173.1,77.9
0.071102,375.2,64.8,1463.7,295.9,2015.2,769.9,373.9,1467.7,2035.7,173.1,77.9
0.073102,375.2,67.8,1429.6,304.7,2036.2,793.2,373.3,1443.6,2051.5,173.1,77.8
0.075102,374.6,68.6,1394.0,297.2,2074.6,816.6,372.5,1419.3,2078.9,173.2,77.7
0.077102,373.5,67.4,1363.4,285.9,2109.7,850.0,371.4,1395.2,2117.1,173.2,77.6
0.079102,372.2,65.0,1340.4,279.4,2136.0,905.0,370.2,1371.9,2164.4,173.2,77.5
0.081102,370.8,62.9,1325.0,277.2,2164.0,969.4,368.8,1350.2,2219.2,173.2,77.4
0.083102,369.1,61.2,1313.1,272.9,2209.1,1053.2,367.5,1330.8,2279,173.2,77.3
0.085102,367.1,59.7,1304.5,262.3,2269.8,1191.2,366.1,1314.5,2341.5,173.2,77.2
0.087102,365.0,58.4,1298.4,244.2,2351.7,1473.3,364.7,1301.6,2404.2,173.2,77.1
0.089102,363.1,57.1,1294.8,221.5,2458.2,2046.3,363.4,1292.7,2464.5,173.2,76.9
0.091102,361.4,55.0,1291.1,203.7,2588.4,2838.2,362.2,1287.6,2520.2,173.2,76.8
0.093102,359.7,51.0,1287.3,196.0,2747.8,423.6,361,1286.4,2569.3,173.2,76.7
0.095102,358.0,46.6,1289.6,199.5,2705.7,416.6,360,1288.6,2610.1,173.2,76.5
0.097102,356.8,42.7,1303.9,211.9,2672.4,409.8,359.1,1293.5,2641.5,173.1,76.4
0.099102,356.1,39.8,1325.6,227.6,2652.8,397.9,358.4,1300.4,2662.9,173.1,76.2
0.101102,355.8,37.5,1346.4,242.3,2647.4,382.7,357.7,1308.1,2673.9,173.1,76.1
0.103102,355.8,35.7,1358.9,255.7,2656.3,364.4,357.1,1315.7,2674.9,173.1,75.9
0.105102,355.7,34.6,1358.9,270.1,2663.8,340.8,356.6,1322.1,2666.6,173.1,75.8
0.107102,355.7,34.2,1349.4,287.6,2652.9,309.7,356.2,1326.4,2649.8,173,75.6
0.109102,355.9,34.7,1337.6,303.3,2626.5,279.0,355.7,1327.8,2625.9,173,75.5
0.111102,356.2,35.1,1323.4,313.6,2590.4,258.6,355.3,1325.7,2596.4,173,75.4
0.113102,356.3,34.5,1303.2,313.5,2548.8,254.9,354.9,1319.9,2562.7,172.9,75.4
0.115102,356.2,33.0,1275.2,304.0,2500.6,261.7,354.5,1310.4,2526.5,172.9,75.3
0.117102,355.9,31.3,1244.2,292.5,2448.7,266.9,354,1297.4,2489.2,172.8,75.3
0.119102,355.8,30.3,1220.5,290.1,2405.7,259.7,353.6,1281.7,2452.3,172.8,75.2
0.121102,355.8,30.0,1206.3,297.3,2374.2,243.5,353.1,1264,2417,172.7,75.2
0.123102,355.7,29.5,1203.0,303.8,2354.7,231.1,352.7,1245.4,2384.3,172.7,75.1
0.125102,355.1,28.5,1206.8,306.0,2339.8,225.4,352.3,1227,2355.4,172.6,75.1
0.127102,354.0,27.1,1212.9,309.4,2327.0,221.0,352,1210,2330.7,172.6,75
0.129102,352.4,25.2,1216.9,314.1,2321.3,212.0,351.7,1195.5,2311.1,172.5,74.9
0.131102,350.1,22.5,1219.8,317.3,2325.0,200.4,351.5,1184.3,2296.7,172.4,74.7
0.133102,347.4,19.5,1224.6,324.7,2334.8,196.1,351.3,1177.3,2288,172.4,74.5
0.135102,344.0,16.8,1231.3,352.5,2346.3,206.6,351.3,1174.9,2285.1,172.3,74.2
