time,f1,b1,f2,b2,f3,b3,f1p,f2p,f3p,f0,intensity
0.025483,358.2,146.7,1165.5,575.3,2261.7,229.5,374.4,1112.9,2282.7,148.3,72.2
0.027483,366.9,156.6,1122.4,364.7,2269.6,219.1,381.2,1119.1,2274.7,148,72
0.029483,374.5,153.5,1107.3,195.7,2273.9,242.6,392.3,1129.1,2261.9,147.7,71.5
0.031483,391.8,164.7,1115.9,116.0,2265.0,347.6,407.1,1142.5,2245.3,147.4,70.9
0.033483,426.2,204.8,1139.7,90.8,2225.3,494.8,425.1,1158.8,2226,147,70.3
0.035483,471.4,238.8,1169.6,80.2,2187.0,503.3,445.7,1177.3,2205.3,146.6,69.7
0.037483,502.4,252.7,1196.6,72.3,2178.7,450.5,468,1197.4,2184.5,146.3,69.3
0.039483,512.9,271.4,1217.6,70.4,2180.9,430.0,491.4,1218.2,2165,145.9,69.1
0.041483,519.0,300.1,1237.2,74.7,2174.1,443.7,515.2,1239.3,2147.8,145.5,68.9
0.043483,532.0,328.6,1260.7,82.2,2149.3,476.3,538.6,1259.9,2134,145.1,68.8
0.045483,556.6,345.0,1286.9,87.3,2125.9,504.6,561.1,1279.7,2124.1,144.7,68.7
0.047483,588.4,343.2,1310.1,87.7,2115.5,524.3,582.3,1298.4,2118.4,144.2,68.5
0.049483,616.0,332.6,1328.2,86.5,2108.3,537.3,602,1315.6,2116.7,143.8,68.3
0.051483,632.6,324.5,1342.4,85.4,2098.2,534.2,619.9,1331.3,2118.7,143.4,68.1
0.053483,639.3,316.9,1352.5,84.2,2093.0,509.6,636.2,1345.7,2123.6,143,68
0.055483,641.8,300.3,1359.1,84.4,2099.0,466.2,650.9,1358.9,2130.5,142.6,67.9
0.057483,646.5,276.1,1365.3,90.6,2113.0,417.6,664.2,1371,2138.3,142.2,67.8
0.059483,656.8,256.8,1374.5,106.1,2132.0,394.4,676.6,1382.5,2146,141.8,67.8
0.061483,671.0,244.8,1387.1,123.9,2160.1,399.8,688.3,1393.5,2152.7,141.4,67.8
0.063483,686.6,234.2,1400.0,133.2,2197.9,402.7,699.8,1404.3,2157.4,141.1,67.9
0.065483,702.8,223.2,1410.5,134.7,2227.9,391.7,711.3,1415.2,2159.7,140.7,68
0.067483,718.1,211.2,1419.1,135.0,2232.4,389.4,723,1426.2,2159.3,140.4,68.2
0.069483,732.4,199.2,1426.7,140.6,2208.4,412.7,735.3,1437.4,2156.3,140.1,68.5
0.071483,748.3,191.7,1436.0,160.5,2160.2,474.1,748.1,1448.8,2151,139.8,68.8
0.073483,766.2,186.9,1450.9,191.0,2104.0,567.9,761.5,1460.2,2144.2,139.5,69.2
0.075483,783.4,178.2,1470.7,209.1,2067.7,664.1,775.2,1471.5,2136.8,139.2,69.5
0.077483,801.9,168.3,1490.9,212.5,2055.9,752.6,789.2,1482.4,2129.8,139,69.8
0.079483,824.5,161.5,1513.8,215.4,2056.7,859.4,803,1492.7,2124.4,138.7,70
0.081483,844.5,155.1,1535.2,210.4,2070.4,981.8,816.5,1502.2,2121.5,138.5,70.2
0.083483,853.6,147.8,1542.2,190.0,2103.5,1046.9,829.1,1510.8,2122.3,138.3,70.3
0.085483,853.9,142.4,1533.5,164.1,2146.4,1003.4,840.5,1518.3,2127.2,138.1,70.4
0.087483,851.7,140.8,1518.7,141.3,2185.2,887.2,850.3,1524.9,2136.8,137.9,70.4
0.089483,851.3,143.3,1508.9,126.0,2218.3,788.8,858.4,1530.5,2151.1,137.8,70.3
0.091483,852.3,151.4,1508.5,121.4,2248.2,756.0,864.4,1535.4,2169.9,137.6,70.1
0.093483,851.9,167.6,1515.5,130.5,2260.7,769.8,868.2,1540,2192.4,137.5,69.9
0.095483,849.6,188.9,1527.8,152.6,2254.2,785.2,869.8,1544.4,2217.9,137.4,69.6
0.097483,847.5,204.2,1543.0,176.0,2257.7,784.3,869.2,1549.2,2245.2,137.3,69.3
0.099483,844.4,208.2,1555.6,193.0,2269.2,770.2,866.6,1554.7,2273.2,137.1,68.9
0.101483,837.7,205.6,1563.9,215.3,2267.1,746.4,862.2,1561.2,2300.4,137,68.6
0.103483,830.1,200.0,1570.7,249.9,2246.7,725.7,856.2,1569,2325.7,136.9,68.2
0.105483,829.0,193.2,1581.1,278.9,2233.4,740.5,849,1578.3,2348.2,136.9,67.9
0.107483,836.5,186.0,1599.2,277.7,2243.3,840.3,840.8,1589.2,2366.9,136.8,67.7
0.109483,849.1,179.6,1621.5,241.4,2282.3,1076.6,832.2,1601.5,2381.5,136.7,67.5
0.111483,860.2,179.0,1636.9,195.0,2389.0,1380.9,823.4,1615,2391.6,136.6,67.3
0.113483,862.7,188.0,1642.1,175.7,2531.9,1369.4,814.6,1629.4,2397.5,136.5,67.1
0.115483,855.5,211.8,1645.3,191.9,2568.4,1015.7,806.3,1644.1,2399.7,136.5,66.8
0.117483,842.1,255.0,1653.7,241.6,2512.1,720.4,798.7,1658.7,2398.8,136.4,66.4
0.119483,825.7,311.7,1666.6,325.3,2458.5,657.3,791.9,1672.4,2395.7,136.3,66
0.121483,808.2,374.1,1667.3,418.7,2417.3,643.9,786.1,1684.7,2391.4,136.3,65.6
0.123483,787.2,442.3,1652.3,464.5,2388.9,627.4,781.5,1694.9,2386.8,136.2,65.3
0.125483,762.9,492.1,1668.3,443.7,2370.4,688.1,778.2,1702.7,2382.9,136.1,65
0.127483,731.9,488.4,1723.7,362.2,2320.9,828.9,776.2,1707.5,2380.2,136.1,64.9
0.129483,684.5,440.4,1759.2,266.9,2233.9,826.8,775.5,1709.1,2379.3,136,64.9
