time,f1,b1,f2,b2,f3,b3,f1p,f2p,f3p,f0,intensity
0.025916,370.5,82.5,2043.2,534.3,2698.7,148.2,393.5,2370,2811.3,182.5,69.9
0.027916,372.7,87.7,2134.4,486.0,2710.1,135.3,393.4,2370.3,2812.3,182.4,70.1
0.029916,375.0,93.9,2231.7,385.8,2725.2,137.5,393.2,2370.8,2813.9,182.3,70.4
0.031916,377.2,101.4,2295.5,277.9,2744.6,142.4,393,2371.5,2816.3,182.1,70.6
0.033916,379.9,109.8,2335.9,190.0,2770.0,142.9,392.8,2372.3,2819.2,182,70.8
0.035916,382.9,117.8,2362.8,126.7,2802.5,134.3,392.4,2373.4,2822.8,181.8,71
0.037916,385.5,124.4,2380.5,88.1,2835.4,118.4,392,2374.6,2827,181.6,71.2
0.039916,388.0,131.0,2393.2,64.3,2864.2,97.6,391.6,2376.1,2831.8,181.4,71.3
0.041916,390.4,136.9,2402.3,50.9,2885.7,76.2,391.1,2377.7,2837.2,181.2,71.4
0.043916,392.0,138.8,2407.7,45.9,2898.1,60.1,390.6,2379.5,2843.1,180.9,71.5
0.045916,393.1,136.6,2412.3,46.5,2903.9,50.0,390,2381.5,2849.5,180.7,71.6
0.047916,394.0,132.8,2419.4,50.9,2905.8,45.5,389.4,2383.7,2856.4,180.4,71.7
0.049916,395.2,129.1,2432.4,58.0,2906.7,46.4,388.8,2386,2863.7,180.1,71.7
0.051916,397.1,125.8,2449.8,65.3,2908.7,52.6,388.2,2388.6,2871.5,179.8,71.7
0.053916,399.3,123.0,2467.5,68.5,2912.7,63.5,387.5,2391.3,2879.6,179.5,71.8
0.055916,401.5,120.2,2480.1,65.7,2919.4,79.1,386.8,2394.2,2888,179.2,71.8
0.057916,403.3,118.8,2485.8,59.2,2929.1,96.6,386.2,2397.3,2896.8,178.9,71.9
0.059916,404.3,119.5,2487.1,51.8,2942.4,111.6,385.5,2400.6,2905.7,178.5,71.9
0.061916,404.6,121.0,2485.6,45.7,2956.7,120.7,384.9,2404,2914.9,178.2,72
0.063916,404.3,123.4,2483.0,42.2,2967.5,123.5,384.3,2407.6,2924.3,177.8,72
0.065916,403.3,125.1,2479.8,41.5,2973.6,124.9,383.7,2411.3,2933.7,177.4,72
0.067916,401.6,122.5,2475.4,44.1,2976.6,130.1,383.1,2415.2,2943.3,177.1,72
0.069916,399.3,116.1,2469.4,48.6,2978.6,137.6,382.6,2419.2,2952.9,176.7,72
0.071916,396.5,108.3,2462.2,53.0,2980.2,144.7,382.2,2423.3,2962.4,176.3,72
0.073916,393.0,101.3,2455.2,55.6,2980.4,150.2,381.7,2427.6,2972,175.9,71.9
0.075916,389.4,96.0,2449.4,55.7,2979.1,153.9,381.4,2431.9,2981.4,175.5,71.9
0.077916,385.9,92.2,2445.2,53.4,2976.6,155.8,381.1,2436.4,2990.7,175.2,71.8
0.079916,382.8,91.1,2443.6,50.5,2974.6,158.2,380.9,2440.9,2999.8,174.8,71.8
0.081916,380.3,93.8,2445.5,49.5,2976.2,164.7,380.8,2445.5,3008.8,174.4,71.7
0.083916,378.1,100.4,2449.9,51.0,2983.9,177.7,380.8,2450.2,3017.5,174,71.6
0.085916,376.1,109.2,2455.5,55.3,2997.8,198.7,380.8,2454.9,3025.9,173.6,71.4
0.087916,374.4,118.9,2462.9,61.8,3015.6,228.5,381,2459.6,3034,173.3,71.3
0.089916,373.0,128.5,2472.3,67.9,3031.6,264.8,381.2,2464.3,3041.8,172.9,71.1
0.091916,371.8,137.3,2483.1,72.1,3043.8,305.4,381.6,2469,3049.3,172.5,71
0.093916,371.1,144.3,2493.3,73.2,3051.7,343.5,382,2473.7,3056.3,172.2,70.8
0.095916,371.0,151.0,2500.1,71.2,3055.1,370.5,382.6,2478.3,3063,171.8,70.7
0.097916,371.2,160.1,2503.4,67.0,3056.7,391.3,383.3,2482.9,3069.3,171.4,70.5
0.099916,371.7,172.9,2505.3,61.7,3061.2,416.4,384.1,2487.4,3075.1,171,70.4
0.101916,372.4,187.8,2507.4,56.4,3070.7,449.3,385,2491.8,3080.5,170.7,70.2
0.103916,373.4,201.2,2509.9,51.6,3082.5,483.7,386,2496,3085.4,170.3,70.1
0.105916,375.1,207.6,2512.4,47.2,3091.5,504.0,387.1,2500.2,3089.9,169.9,70
0.107916,377.3,207.3,2514.7,43.4,3093.6,500.0,388.3,2504.1,3093.9,169.5,69.8
0.109916,379.8,206.9,2516.5,40.1,3090.9,473.0,389.6,2507.9,3097.5,169.1,69.7
0.111916,382.7,208.5,2517.7,37.5,3088.4,434.1,391,2511.5,3100.6,168.7,69.6
0.113916,385.2,209.8,2517.5,36.8,3089.1,402.2,392.6,2514.9,3103.3,168.3,69.4
0.115916,387.2,208.8,2515.0,38.6,3092.2,383.2,394.2,2518,3105.5,167.9,69.2
0.117916,388.7,205.0,2509.3,43.8,3095.5,379.3,395.9,2521,3107.3,167.4,69
0.119916,389.5,200.7,2501.0,52.2,3096.5,393.3,397.7,2523.6,3108.7,167,68.7
0.121916,390.5,197.2,2491.0,62.9,3096.0,424.3,399.5,2526.1,3109.6,166.5,68.4
0.123916,392.2,195.3,2482.4,72.8,3097.4,459.8,401.5,2528.2,3110.2,166,68.1
0.125916,394.9,199.0,2476.6,79.5,3105.1,469.3,403.5,2530.1,3110.4,165.5,67.8
0.127916,398.2,208.8,2473.2,83.5,3116.7,441.2,405.6,2531.6,3110.2,165,67.5
0.129916,402.1,220.0,2472.2,88.1,3125.3,410.7,407.7,2532.9,3109.7,164.5,67.2
0.131916,406.5,229.6,2475.1,95.7,3127.4,407.0,409.8,2533.9,3109,163.9,66.9
0.133916,410.4,234.7,2480.9,104.2,3124.7,436.6,412,2534.6,3107.9,163.3,66.7
0.135916,413.9,235.4,2486.8,109.6,3121.4,481.8,414.3,2535,3106.5,162.7,66.4
0.137916,417.6,239.3,2491.8,109.1,3115.4,503.2,416.5,2535.1,3105,162.1,66.3
0.139916,421.7,248.3,2496.1,102.7,3103.8,487.9,418.7,2534.9,3103.2,161.5,66.2
0.141916,426.5,253.4,2501.9,90.9,3091.1,470.0,421,2534.5,3101.2,160.8,66.2
0.143916,432.3,248.2,2510.7,75.8,3077.8,470.9,423.2,2533.7,3099.1,160.1,66.4
0.145916,438.2,234.7,2520.0,62.2,3066.8,485.8,425.4,2532.8,3096.9,159.4,66.6
0.147916,443.6,216.5,2527.5,50.8,3063.5,499.4,427.6,2531.5,3094.5,158.7,66.8
0.149916,448.6,198.0,2532.4,42.4,3067.4,508.0,429.7,2530.1,3092.1,157.9,67
0.151916,452.8,182.2,2534.3,38.1,3070.9,509.4,431.8,2528.4,3089.6,157.1,67.2
0.153916,456.2,165.9,2533.4,36.5,3072.1,487.1,433.9,2526.6,3087.1,156.3,67.3
0.155916,459.1,146.7,2529.5,36.7,3076.4,432.3,435.9,2524.5,3084.6,155.4,67.3
0.157916,461.2,127.3,2522.4,39.8,3087.0,372.0,437.8,2522.4,3082.1,154.5,67.2
0.159916,461.5,108.0,2510.8,47.8,3101.4,324.6,439.6,2520.1,3079.6,153.6,67.2
0.161916,460.0,89.5,2495.7,58.6,3114.5,292.6,441.3,2517.7,3077.2,152.6,67.2
0.163916,457.5,74.1,2485.2,64.7,3121.8,279.6,442.9,2515.3,3074.8,151.6,67.2
0.165916,455.0,64.9,2487.5,61.5,3119.8,287.7,444.4,2512.8,3072.5,150.6,67.3
0.167916,452.6,60.1,2494.3,55.9,3110.9,299.4,445.9,2510.3,3070.3,149.5,67.3
0.169916,450.7,59.2,2499.0,54.2,3099.2,305.9,447.2,2507.9,3068.2,148.4,67.4
0.171916,449.2,61.6,2502.0,56.9,3090.8,310.1,448.3,2505.5,3066.3,147.2,67.4
0.173916,448.3,66.7,2505.5,60.5,3087.3,311.7,449.4,2503.2,3064.4,146,67.4
0.175916,448.0,77.6,2509.5,63.3,3084.6,308.8,450.3,2501,3062.7,144.8,67.2
0.177916,447.8,97.5,2512.6,67.0,3078.8,307.0,451.1,2498.9,3061.1,143.5,67
0.179916,446.8,125.2,2516.0,70.8,3071.8,307.8,451.7,2497,3059.6,142.2,66.6
0.181916,444.7,153.0,2522.0,73.4,3067.0,311.5,452.2,2495.3,3058.3,140.8,66.1
0.183916,442.0,176.3,2529.2,77.7,3065.5,321.7,452.6,2493.9,3057.1,139.4,65.5
0.185916,438.3,201.9,2534.1,86.3,3068.4,338.5,452.8,2492.7,3056,138,64.9
0.187916,433.8,229.3,2534.1,94.6,3076.5,349.7,452.9,2491.7,3055.1,136.5,64.2
0.189916,431.8,250.1,2530.1,95.1,3085.6,339.1,452.9,2491.1,3054.3,135,63.6
0.191916,434.3,269.4,2523.5,93.6,3090.5,314.5,452.7,2490.8,3053.5,133.5,63.2
0.193916,440.4,279.2,2513.7,102.3,3084.6,297.0,452.4,2490.8,3052.9,131.9,63
0.195916,445.1,254.3,2505.4,117.1,3061.0,294.1,452,2491.2,3052.3,130.4,63.1
0.197916,444.6,208.3,2506.5,118.2,3020.8,305.4,451.4,2491.9,3051.8,128.8,63.4
0.199916,441.3,166.9,2514.1,108.3,2974.1,327.2,450.7,2493,3051.3,127.3,63.7
0.201916,439.0,136.0,2523.4,96.3,2936.9,350.7,450,2494.4,3050.9,125.7,63.9
0.203916,439.5,115.8,2532.7,82.7,2923.2,363.2,449.1,2496.3,3050.5,124.2,63.9
0.205916,441.9,106.0,2540.9,68.4,2935.7,348.0,448.1,2498.5,3050.1,122.7,63.7
0.207916,443.6,113.9,2546.0,59.4,2971.2,300.2,447,2501,3049.7,121.2,63.3
0.209916,441.6,153.9,2545.0,60.6,3008.9,252.7,445.8,2503.9,3049.3,119.7,62.8
0.211916,437.6,239.1,2540.8,65.7,3039.0,229.5,444.6,2507.2,3048.8,118.3,62.3
0.213916,435.9,357.5,2540.2,68.0,3062.8,229.3,443.3,2510.8,3048.2,116.9,62.1
0.215916,436.5,442.1,2542.6,66.6,3077.5,238.6,441.9,2514.7,3047.6,115.5,62
0.217916,438.4,466.4,2545.8,60.6,3084.4,243.5,440.5,2518.8,3046.9,114.2,62
0.219916,441.9,455.6,2549.3,50.3,3085.1,235.6,439.1,2523.2,3046,112.9,61.9
0.221916,446.8,432.9,2552.7,40.4,3082.1,222.0,437.7,2527.8,3045,111.6,61.7
0.223916,450.3,414.8,2555.1,36.0,3075.7,219.8,436.2,2532.6,3043.8,110.4,61.4
0.225916,447.9,423.0,2554.9,38.1,3065.7,231.2,434.8,2537.5,3042.5,109.2,61.1
0.227916,440.7,441.0,2553.7,39.5,3057.9,237.8,433.4,2542.5,3041,108,60.9
0.229916,432.0,438.8,2553.4,37.1,3051.6,239.5,432,2547.6,3039.3,106.8,60.9
0.231916,423.3,393.4,2552.6,35.0,3042.0,244.9,430.6,2552.6,3037.4,105.7,60.9
0.233916,420.4,320.0,2549.5,37.0,3031.3,248.9,429.3,2557.6,3035.3,104.5,61
0.235916,424.7,257.6,2545.5,40.4,3026.0,242.2,428.1,2562.5,3033,103.3,61.1
0.237916,432.2,215.7,2545.0,40.2,3024.6,232.2,426.9,2567.2,3030.4,102.2,61.1
0.239916,439.8,189.5,2548.5,36.4,3024.0,226.5,425.8,2571.7,3027.6,101,60.9
0.241916,443.6,185.4,2553.4,32.9,3026.3,228.1,424.9,2575.9,3024.5,99.9,60.6
0.243916,439.8,217.3,2556.0,31.7,3034.3,226.2,424,2579.8,3021.2,98.7,60.3
0.245916,428.2,275.1,2555.8,31.1,3042.0,214.9,423.3,2583.3,3017.7,97.6,59.9
0.247916,419.3,309.0,2555.7,28.7,3043.8,205.2,422.7,2586.2,3013.9,96.4,59.5
0.249916,415.0,315.4,2555.7,25.8,3039.9,203.7,422.2,2588.7,3009.8,95.3,59.1
0.251916,406.1,321.2,2552.7,25.5,3024.0,217.9,421.9,2590.6,3005.5,94.2,58.8
0.253916,391.5,334.3,2544.4,29.8,2995.8,238.4,421.8,2591.8,3001,93.1,58.5
0.255916,386.1,330.0,2535.4,34.1,2975.0,242.4,421.8,2592.3,2996.2,92,58.2
0.257916,394.0,309.2,2532.2,34.3,2968.2,236.0,422,2592,2991.2,91,57.9
0.259916,407.4,289.7,2533.5,33.6,2966.6,239.0,422.4,2591,2985.9,90,57.9
0.261916,421.5,302.0,2532.9,40.2,2962.7,264.3,423,2589,2980.5,89.1,58.1
0.263916,432.8,351.7,2518.1,64.1,2954.4,274.4,423.7,2586.2,2974.8,88.3,58.5
0.265916,442.1,354.6,2496.3,79.8,2955.4,240.1,424.7,2582.4,2969,87.6,59.1
0.267916,450.8,316.7,2489.2,72.9,2959.7,210.9,425.9,2577.5,2963,87,59.7
0.269916,456.9,261.7,2492.2,58.5,2961.8,191.5,427.3,2571.7,2956.8,86.5,60
0.271916,459.3,202.7,2498.4,45.1,2961.6,178.3,428.8,2564.8,2950.5,86.2,60
0.273916,458.6,143.3,2506.3,34.3,2958.6,172.7,430.6,2556.8,2944.1,86.1,59.8
0.275916,456.3,94.2,2515.9,27.7,2949.5,180.0,432.6,2547.7,2937.5,86,59.5
0.277916,455.2,76.1,2524.5,29.4,2930.8,202.4,434.8,2537.4,2930.8,86.2,59.1
0.279916,458.4,102.1,2520.4,41.0,2922.8,198.3,437.2,2526,2924.1,86.6,58.9
0.281916,463.8,138.8,2506.5,47.0,2929.3,170.4,439.7,2513.5,2917.2,87.1,58.9
0.283916,467.3,150.8,2497.0,43.4,2935.0,150.6,442.5,2499.9,2910.4,87.8,59
0.285916,468.0,139.3,2492.8,37.2,2935.8,140.7,445.5,2485.1,2903.5,88.7,58.9
0.287916,466.9,121.3,2490.0,33.0,2929.9,140.1,448.6,2469.2,2896.6,0,58.8
0.289916,465.7,117.7,2485.4,35.5,2911.4,150.1,452,2452.2,2889.7,0,58.4
0.291916,465.6,150.2,2478.0,46.9,2888.4,156.8,455.4,2434.1,2882.8,0,58
0.293916,463.3,217.8,2471.5,58.2,2878.3,151.8,459.1,2415,2875.9,0,57.5
0.295916,454.1,276.0,2468.6,61.2,2877.1,144.5,462.9,2394.9,2869.1,0,57.1
0.297916,444.2,267.8,2466.5,60.8,2875.4,139.3,466.8,2373.9,2862.4,0,56.8
0.299916,441.6,219.6,2462.0,64.6,2869.2,137.5,470.8,2352,2855.8,0,56.5
0.301916,445.8,173.9,2452.3,77.4,2857.8,138.2,475,2329.3,2849.2,0,56.1
0.303916,452.0,138.2,2436.4,100.2,2844.8,141.3,479.3,2305.8,2842.8,0,55.5
0.305916,457.5,109.0,2414.7,131.5,2832.6,150.7,483.6,2281.7,2836.5,0,54.6
0.307916,463.3,94.7,2392.8,170.2,2822.6,175.1,488,2256.9,2830.3,0,53.6
0.309916,472.2,119.2,2365.4,244.1,2807.7,229.8,492.5,2231.6,2824.3,0,52.5
0.311916,491.9,259.4,2249.5,380.9,2779.6,233.9,497,2205.8,2818.4,0,51.8
0.313916,503.0,564.7,2100.9,413.5,2775.2,188.7,501.6,2179.7,2812.7,0,51.6
0.315916,471.5,899.1,2033.7,416.2,2772.7,170.8,506.2,2153.3,2807.1,0,52.2
0.317916,450.2,1005.4,2004.5,401.0,2768.3,159.2,510.7,2126.7,2801.8,0,52.9
0.319916,480.3,851.0,1981.1,362.1,2761.6,147.4,515.3,2100.1,2796.6,0,53.6
0.321916,509.6,633.3,1957.1,316.0,2753.6,138.4,519.8,2073.5,2791.7,0,53.9
0.323916,524.3,456.1,1934.5,276.8,2746.4,134.5,524.3,2047.1,2786.9,0,53.8
0.325916,531.4,320.7,1914.4,248.1,2741.7,136.4,528.7,2020.9,2782.4,0,53.4
0.327916,537.2,222.6,1900.8,237.1,2743.6,144.5,533,1995,2778,0,52.6
0.329916,545.5,164.8,1902.6,261.8,2752.6,157.2,537.2,1969.6,2773.9,0,51.4
0.331916,557.4,136.4,1935.0,357.8,2755.5,178.1,541.3,1944.8,2769.9,0,50
0.333916,567.2,123.4,2014.7,549.1,2740.5,214.8,545.3,1920.6,2766.2,0,48.6
0.335916,564.9,113.8,2087.4,674.5,2735.2,240.2,549.2,1897.1,2762.8,0,47.4
0.337916,553.1,103.0,2107.3,644.3,2769.3,242.3,552.9,1874.6,2759.5,0,46.5
0.339916,542.1,97.1,2106.5,598.6,2822.2,244.4,556.4,1852.9,2756.4,0,46
0.341916,539.5,113.1,2089.9,601.8,2868.2,272.7,559.7,1832.3,2753.6,0,45.9
0.343916,549.2,182.9,2038.8,610.4,2891.3,339.8,562.9,1812.9,2751,0,46.2
0.345916,571.4,361.3,1977.5,645.5,2857.5,435.8,565.8,1794.7,2748.6,0,46.9
0.347916,582.1,594.0,1912.4,734.1,2780.8,468.7,568.5,1777.8,2746.4,0,48
0.349916,577.8,690.7,1845.6,788.0,2723.4,425.9,571,1762.2,2744.4,166.8,49.3
0.351916,584.9,601.9,1779.7,783.7,2691.9,364.1,573.3,1748.1,2742.6,168.8,50.6
0.353916,594.1,448.6,1685.1,696.5,2672.6,301.7,575.3,1735.5,2741.1,170.6,51.8
0.355916,593.3,320.4,1593.8,538.9,2662.8,259.2,577.1,1724.5,2739.7,172.3,52.7
0.357916,588.8,231.8,1536.1,406.5,2662.1,243.1,578.6,1715.1,2738.6,173.9,53.3
0.359916,585.5,176.9,1505.4,333.9,2675.0,243.7,579.8,1707.3,2737.7,175.4,53.6
0.361916,584.1,145.8,1490.8,310.2,2702.5,252.3,580.8,1701.2,2737,176.8,53.5
0.363916,584.8,130.0,1488.9,331.1,2746.1,277.2,581.5,1696.9,2736.4,178.1,53.1
0.365916,588.0,126.3,1511.1,420.8,2805.6,334.8,581.9,1694.2,2736.1,179.2,52.3
0.367916,592.4,127.6,1579.6,603.0,2860.0,421.3,582,1693.4,2736,180.3,51.2
