time,f1,b1,f2,b2,f3,b3,f1p,f2p,f3p,f0,intensity
0.025526,334.5,389.0,1129.1,2289.9,2411.1,261.8,369.7,1135.8,2503.9,175.9,65.2
0.027526,326.3,308.9,1066.3,1042.1,2399.7,225.7,370,1133.2,2506.1,175.6,66.1
0.029526,330.0,257.6,1085.6,669.0,2393.7,230.5,370.6,1129,2509.7,175.2,66.8
0.031526,340.0,232.5,1090.2,502.7,2409.1,269.9,371.4,1123.2,2514.7,174.9,67.3
0.033526,354.1,218.9,1090.4,414.8,2466.5,307.7,372.3,1116.1,2521.1,174.5,67.8
0.035526,368.3,204.5,1087.7,355.2,2538.0,296.7,373.5,1107.7,2528.9,174.1,68.2
0.037526,380.5,189.1,1084.9,314.9,2589.2,259.4,374.9,1098.3,2537.9,173.7,68.5
0.039526,389.9,176.8,1084.6,297.9,2613.2,234.2,376.5,1088.2,2548.2,173.3,68.8
0.041526,397.2,165.9,1084.9,299.5,2616.3,237.2,378.3,1077.6,2559.7,173,69
0.043526,402.1,153.2,1081.0,307.8,2605.8,271.7,380.2,1066.8,2572.2,172.6,69.2
0.045526,404.8,139.1,1070.7,313.4,2589.4,336.0,382.3,1056,2585.8,172.2,69.3
0.047526,406.5,127.2,1057.8,317.8,2578.5,420.8,384.6,1045.6,2600.3,171.9,69.4
0.049526,408.3,121.6,1049.2,323.0,2601.1,488.7,387,1035.8,2615.6,171.5,69.5
0.051526,409.6,122.0,1046.3,312.2,2668.1,477.9,389.5,1027,2631.6,171.2,69.5
0.053526,409.6,124.5,1042.2,276.0,2733.3,400.3,392.1,1019.3,2648.2,170.9,69.6
0.055526,409.5,126.3,1037.1,241.0,2770.9,323.8,394.9,1013.1,2665.3,170.6,69.7
0.057526,409.7,125.7,1033.0,217.9,2790.1,259.6,397.7,1008.4,2682.7,170.3,69.8
0.059526,410.2,121.7,1029.8,204.3,2799.9,208.2,400.6,1005.5,2700.3,170,69.9
0.061526,411.4,116.2,1028.1,198.7,2807.3,169.6,403.5,1004.5,2718,169.7,70
0.063526,414.2,114.9,1030.8,204.2,2814.5,140.7,406.5,1005.5,2735.6,169.4,70.1
0.065526,419.2,121.9,1041.0,224.0,2820.0,120.1,409.5,1008.5,2753,169.2,70.2
0.067526,425.8,135.1,1057.6,253.1,2823.0,109.3,412.5,1013.4,2770,168.9,70.3
0.069526,431.6,148.7,1073.9,278.3,2825.2,108.2,415.5,1020.3,2786.5,168.7,70.4
0.071526,434.9,160.2,1084.0,292.0,2827.8,114.5,418.5,1029,2802.4,168.4,70.4
0.073526,435.8,169.3,1087.6,297.5,2826.8,125.8,421.5,1039.4,2817.4,168.2,70.5
0.075526,435.7,178.5,1089.0,306.2,2816.1,143.5,424.4,1051.2,2831.4,167.9,70.5
0.077526,435.0,187.7,1089.9,321.8,2795.8,165.5,427.2,1064.3,2844.4,167.7,70.6
0.079526,433.2,191.2,1088.1,336.2,2775.8,184.7,430,1078.2,2856.1,167.5,70.6
0.081526,429.2,184.3,1082.1,340.2,2765.5,198.7,432.7,1092.8,2866.5,167.2,70.5
0.083526,423.7,170.4,1073.9,333.9,2764.4,211.6,435.2,1107.7,2875.4,167,70.5
0.085526,418.6,157.4,1067.0,325.6,2768.6,227.5,437.7,1122.4,2882.8,166.7,70.4
0.087526,415.5,151.7,1064.0,325.1,2779.1,247.8,440,1136.7,2888.6,166.4,70.3
0.089526,415.0,155.8,1067.0,341.3,2800.1,267.6,442.3,1150.2,2892.6,166.2,70.1
0.091526,417.1,169.4,1078.7,386.3,2828.4,273.2,444.3,1162.4,2894.9,165.9,70
0.093526,420.9,186.1,1102.5,467.0,2847.0,266.4,446.3,1173.1,2895.5,165.6,69.9
0.095526,425.1,198.3,1142.7,583.3,2853.0,264.5,448,1181.8,2894.2,165.3,69.8
0.097526,427.7,200.9,1189.7,696.3,2853.8,268.6,449.7,1188.4,2891.1,164.9,69.6
0.099526,428.1,199.4,1210.3,753.3,2857.9,267.3,451.1,1192.4,2886.3,164.6,69.5
0.101526,428.7,203.1,1193.0,743.4,2870.7,251.6,452.4,1193.7,2879.7,164.2,69.4
0.103526,432.2,213.4,1167.0,699.4,2888.1,224.7,453.5,1192,2871.4,163.9,69.2
0.105526,440.6,228.2,1158.6,668.7,2898.3,199.9,454.5,1187.3,2861.6,163.5,69.1
0.107526,453.5,243.7,1171.0,674.3,2893.1,187.4,455.2,1179.5,2850.3,163.1,69
0.109526,464.9,251.7,1185.5,709.0,2874.6,186.8,455.9,1168.5,2837.6,162.7,68.8
0.111526,468.9,249.5,1177.7,752.1,2851.9,195.6,456.3,1154.4,2823.7,162.3,68.7
0.113526,468.4,242.5,1146.9,775.7,2836.4,213.2,456.6,1137.4,2808.7,161.9,68.6
0.115526,469.1,234.9,1118.6,791.5,2834.0,239.4,456.7,1117.5,2792.8,161.4,68.5
0.117526,474.0,228.8,1114.8,853.0,2841.1,272.2,456.6,1095.1,2776.3,161,68.4
0.119526,481.7,223.3,1134.7,991.2,2841.0,321.0,456.4,1070.5,2759.2,160.5,68.4
0.121526,484.1,214.8,1116.5,1155.6,2824.5,413.9,456.1,1044,2741.8,160,68.4
0.123526,476.5,202.7,994.8,1092.4,2787.2,595.8,455.6,1016,2724.3,159.5,68.3
0.125526,465.1,188.5,932.2,868.3,2672.6,830.1,454.9,987.1,2706.9,159,68.3
0.127526,458.2,180.3,908.6,732.3,2605.6,846.6,454.1,957.7,2689.8,158.5,68.3
0.129526,457.0,183.6,893.3,665.9,2668.4,864.7,453.2,928.4,2673.3,158,68.3
0.131526,459.8,198.2,878.0,633.8,2780.8,877.8,452.2,899.8,2657.6,157.4,68.3
0.133526,462.3,218.8,858.9,603.1,2901.4,901.4,451.1,872.4,2642.8,156.8,68.3
0.135526,459.1,235.3,839.9,553.9,2945.0,1800.4,449.8,846.8,2629.1,156.3,68.4
0.137526,450.9,242.6,826.0,504.7,2536.0,1459.9,448.5,823.7,2616.8,155.7,68.4
0.139526,443.0,240.9,818.9,477.4,2411.1,1180.2,447.1,803.5,2606,155,68.5
0.141526,439.8,231.8,818.7,482.6,2440.9,1035.6,445.6,786.9,2596.9,154.4,68.5
0.143526,439.4,214.1,822.9,502.9,2558.0,833.6,444,774.3,2589.5,153.8,68.5
0.145526,438.2,189.9,825.5,518.5,2596.3,565.8,442.3,766.2,2584,153.1,68.5
0.147526,437.2,167.1,825.1,552.6,2583.7,425.8,440.6,763,2580.5,152.4,68.5
0.149526,439.2,149.7,827.2,647.5,2566.1,397.7,438.9,765.2,2579,151.7,68.5
0.151526,443.3,137.2,837.4,827.5,2553.2,474.0,437,772.9,2579.6,151,68.4
0.153526,445.0,126.1,855.9,1085.1,2539.6,648.7,435.2,786.5,2582.2,150.2,68.3
0.155526,442.7,117.0,885.2,1383.9,2526.7,852.6,433.3,806,2586.9,149.4,68.2
0.157526,438.1,111.3,952.2,1736.2,2559.5,916.7,431.4,831.5,2593.7,148.7,68
0.159526,432.8,110.6,1111.9,2054.3,2580.0,792.3,429.4,863,2602.4,147.9,67.7
0.161526,426.2,116.0,1039.6,1789.7,2536.8,664.2,427.5,900.3,2613,147,67.4
0.163526,417.7,128.3,930.3,1223.6,2475.3,509.9,425.5,943.4,2625.3,146.2,67
0.165526,408.4,146.1,896.2,859.1,2456.0,363.6,423.5,991.9,2639.2,145.4,66.6
0.167526,401.1,165.4,874.7,681.7,2467.5,276.3,421.5,1045.5,2654.5,144.5,66.3
0.169526,399.0,180.3,850.5,654.5,2487.9,244.5,419.5,1103.8,2671.2,143.6,65.9
0.171526,403.1,187.2,814.8,760.4,2507.6,253.3,417.6,1166.2,2688.9,142.8,65.7
0.173526,411.8,174.7,757.3,1063.0,2520.7,307.5,415.6,1232.3,2707.5,141.9,65.6
0.175526,416.5,143.6,612.0,1738.8,2522.1,413.5,413.6,1301.5,2726.8,141,65.6
0.177526,416.4,117.2,2506.2,539.8,3718.3,2227.5,411.7,1373,2746.4,140.1,65.6
0.179526,416.4,103.2,2462.5,567.9,3540.0,2283.2,409.7,1446.3,2766.4,139.2,65.6
0.181526,275.4,2522.1,415.8,96.8,2410.9,460.0,407.8,1520.6,2786.3,138.3,65.6
0.183526,414.9,93.5,599.9,1984.3,2376.2,358.4,405.9,1595.2,2806,137.4,65.4
0.185526,416.5,93.7,519.2,2147.7,2360.8,320.8,404,1669.5,2825.2,136.5,65.2
0.187526,421.8,99.9,2362.2,337.2,3504.1,1158.1,402.1,1742.7,2843.8,135.6,65
0.189526,428.2,111.6,2376.3,380.1,3442.8,1583.8,400.3,1814.2,2861.5,134.7,64.7
0.191526,431.6,126.4,2395.0,417.4,3057.0,1673.3,398.4,1883.4,2878.2,133.9,64.4
0.193526,426.5,140.9,2406.4,434.3,2993.9,1426.8,396.6,1949.5,2893.7,133,64.3
0.195526,409.5,144.4,2397.6,464.8,2999.1,1297.5,394.9,2012.2,2907.9,132.2,64.2
0.197526,389.9,131.6,2345.9,550.7,2996.7,1105.3,393.1,2070.8,2920.7,131.4,64.2
0.199526,379.1,117.1,2235.5,643.5,3011.3,846.6,391.4,2125.1,2931.9,130.6,64.1
0.201526,378.1,112.5,2139.7,693.8,3023.5,728.2,389.8,2174.5,2941.5,129.9,64.1
0.203526,382.4,116.8,2131.7,763.3,2987.1,832.2,388.1,2219,2949.4,129.2,64
0.205526,386.0,122.5,2233.5,853.1,2826.5,1127.0,386.5,2258.2,2955.6,128.5,63.9
0.207526,389.4,124.7,2426.6,819.7,2502.3,1297.7,385,2292,2960.1,127.9,63.8
0.209526,395.9,123.9,2324.9,1151.2,2542.1,711.9,383.5,2320.5,2963,127.3,63.6
0.211526,399.0,122.0,2284.6,1057.8,2604.8,679.5,382,2343.7,2964.3,126.7,63.5
0.213526,390.9,117.1,2427.3,1230.4,2567.3,769.1,380.6,2361.7,2964,126.2,63.4
0.215526,378.5,105.7,2508.5,702.1,2777.8,2038.0,379.2,2374.8,2962.4,125.7,63.3
0.217526,372.6,96.7,2485.6,821.2,3146.9,2204.2,377.9,2383.2,2959.4,125.3,63.2
0.219526,374.4,97.6,2285.9,1025.7,3041.9,1566.5,376.7,2387.2,2955.3,124.9,63.1
0.221526,378.4,104.2,2136.6,859.3,3109.1,1282.1,375.5,2387.4,2950.1,124.6,62.9
0.223526,379.8,107.7,2102.7,797.0,3077.9,1209.9,374.4,2384,2944.1,124.3,62.7
0.225526,381.1,104.6,2108.3,804.7,2982.4,1071.0,373.3,2377.7,2937.5,124,62.4
0.227526,384.9,96.9,2136.7,749.2,2924.0,881.6,372.3,2369,2930.4,123.8,62.1
0.229526,386.9,87.6,2163.4,620.2,2908.0,711.2,371.3,2358.3,2922.9,123.6,61.7
0.231526,381.9,78.1,2186.0,517.4,2915.6,608.2,370.5,2346.2,2915.4,123.5,61.3
0.233526,372.0,66.0,2218.9,471.0,2951.8,599.1,369.7,2333.3,2907.9,123.4,60.9
0.235526,362.5,52.0,2256.0,453.8,3010.4,658.2,369,2320.1,2900.7,123.4,60.5
0.237526,355.2,43.1,2282.1,436.8,3061.3,747.7,368.3,2307.2,2893.8,123.4,60.1
0.239526,348.7,46.2,2299.5,416.8,3078.1,855.3,367.8,2294.9,2887.6,123.4,59.8
0.241526,345.6,67.3,2317.8,415.5,3040.1,971.6,367.3,2283.7,2882,123.4,59.5
0.243526,351.6,110.3,2341.3,450.6,2944.2,1044.4,366.9,2274,2877.3,123.5,59.1
0.245526,367.1,161.4,2380.0,522.9,2832.8,1084.1,366.6,2266.1,2873.6,123.6,58.7
0.247526,373.9,185.7,2433.9,591.8,2744.8,1179.1,366.4,2260.3,2870.8,123.7,58.1
0.249526,367.6,181.8,2474.9,647.7,2707.8,1347.3,366.3,2256.7,2869.1,123.8,57.3
0.251526,361.3,166.0,2496.3,722.6,2756.6,1797.9,366.2,2255.5,2868.6,124,56.2
