time,f1,b1,f2,b2,f3,b3,f1p,f2p,f3p,f0,intensity
0.025274,362.8,132.7,1995.3,575.4,2642.0,81.1,351.6,2294.3,2665.2,162.3,68.3
0.027274,358.9,138.9,2205.5,554.4,2628.6,102.5,350.8,2301.2,2666.6,162.2,68.3
0.029274,353.4,126.7,2374.4,378.7,2627.4,150.9,349.5,2312.3,2669,162.1,68.4
0.031274,346.8,103.5,2438.1,198.0,2659.0,203.7,347.7,2327.2,2672.7,162.1,68.4
0.033274,340.8,83.5,2450.4,118.1,2696.7,199.0,345.4,2345,2677.7,162,68.4
0.035274,336.1,72.2,2453.3,90.8,2718.3,171.9,342.9,2365,2684.5,161.9,68.5
0.037274,332.4,65.5,2454.2,81.6,2732.1,139.0,340.1,2386.4,2693.2,161.8,68.4
0.039274,330.2,60.5,2455.5,80.3,2741.8,110.8,337.2,2408.1,2704,161.7,68.4
0.041274,329.0,56.1,2458.2,83.0,2747.6,94.1,334.2,2429.3,2717.3,161.7,68.4
0.043274,328.2,52.1,2461.6,88.2,2749.8,91.1,331.2,2449.1,2733,161.5,68.3
0.045274,327.3,49.5,2464.5,95.7,2750.4,102.6,328.4,2466.8,2751.4,161.4,68.3
0.047274,326.1,48.6,2468.2,101.7,2754.5,131.4,325.8,2481.9,2772.2,161.3,68.3
0.049274,324.7,48.9,2473.9,98.3,2771.5,171.9,323.5,2494,2795.5,161.2,68.3
0.051274,323.2,49.3,2479.3,86.5,2807.8,205.8,321.5,2502.9,2820.8,161.1,68.3
0.053274,321.8,49.1,2483.0,76.5,2851.3,220.1,319.9,2508.5,2847.8,161,68.2
0.055274,320.9,48.5,2485.1,71.9,2887.6,226.3,318.6,2511.1,2876.1,160.9,68.2
0.057274,320.8,49.1,2484.9,69.2,2917.3,230.7,317.8,2511.1,2905,160.8,68.2
0.059274,321.3,51.2,2483.7,65.5,2943.7,232.0,317.3,2508.9,2934,160.7,68.1
0.061274,321.7,52.4,2485.2,60.7,2964.1,234.0,317.2,2505.1,2962.4,160.6,68.1
0.063274,321.5,50.8,2489.4,55.7,2981.8,241.3,317.5,2500.4,2989.4,160.5,68
0.065274,320.7,46.1,2492.4,51.3,3001.7,254.2,318,2495.5,3014.6,160.4,68
0.067274,319.5,40.5,2491.7,48.0,3022.5,267.9,318.8,2490.8,3037.1,160.3,68
0.069274,318.5,36.6,2490.0,45.3,3035.8,275.5,319.7,2487,3056.5,160.2,68.1
0.071274,317.9,35.8,2491.3,42.4,3039.2,276.6,320.8,2484.5,3072.2,160.2,68.2
0.073274,317.9,37.5,2496.1,38.1,3045.4,275.9,322,2483.6,3084.1,160.1,68.2
0.075274,319.0,40.2,2501.5,33.0,3064.1,273.0,323.2,2484.4,3091.8,160.1,68.3
0.077274,320.9,43.0,2506.3,28.3,3089.6,265.8,324.4,2486.8,3095.2,160,68.4
0.079274,323.3,45.3,2510.3,25.3,3110.4,261.6,325.6,2490.7,3094.4,160,68.4
0.081274,325.2,46.1,2514.3,24.2,3124.1,269.5,326.8,2495.8,3089.6,160,68.4
0.083274,326.6,45.8,2517.3,24.9,3131.7,289.5,327.8,2501.6,3080.9,159.9,68.5
0.085274,327.8,45.5,2518.3,26.8,3126.8,310.9,328.9,2507.5,3068.9,159.9,68.5
0.087274,329.0,46.6,2516.8,29.1,3101.2,316.3,329.8,2513,3053.9,159.9,68.5
0.089274,330.8,49.9,2514.0,30.7,3059.5,300.5,330.7,2517.6,3036.4,159.9,68.4
0.091274,333.3,54.6,2511.1,31.2,3017.7,276.5,331.6,2520.5,3017.1,159.9,68.4
0.093274,335.9,59.1,2508.7,31.8,2983.0,260.9,332.4,2521.5,2996.3,159.9,68.4
0.095274,337.9,62.8,2505.9,33.6,2952.8,254.4,333.3,2520.1,2974.6,159.9,68.3
0.097274,338.8,64.5,2502.0,36.4,2925.3,251.2,334.2,2516,2952.5,159.9,68.3
0.099274,338.6,63.2,2497.7,39.6,2901.9,248.4,335.2,2509.1,2930.4,159.9,68.3
0.101274,338.1,60.0,2492.5,44.3,2880.2,241.7,336.2,2499.4,2908.6,159.9,68.3
0.103274,337.7,57.3,2483.3,50.1,2862.4,225.3,337.3,2487.2,2887.6,159.9,68.3
0.105274,337.7,56.9,2466.9,54.3,2851.8,203.0,338.5,2472.6,2867.4,159.9,68.2
0.107274,337.9,59.1,2445.4,54.2,2843.9,186.4,339.8,2456.2,2848.2,159.9,68.2
0.109274,338.1,62.4,2424.7,51.0,2831.6,179.3,341.2,2438.5,2830.1,159.8,68
0.111274,338.7,64.4,2408.7,46.9,2813.1,175.3,342.7,2419.9,2813.2,159.8,67.9
0.113274,340.3,64.7,2398.0,44.2,2794.4,168.7,344.3,2401,2797.4,159.7,67.7
0.115274,343.1,65.4,2389.2,43.9,2780.3,161.4,345.9,2382.4,2782.6,159.7,67.4
0.117274,346.2,67.4,2380.6,46.5,2771.3,162.0,347.6,2364.6,2768.9,159.6,67.2
0.119274,349.0,71.0,2371.9,52.7,2763.5,178.5,349.3,2348,2756.1,159.5,66.9
0.121274,351.6,77.2,2362.6,64.3,2753.0,211.3,351,2333,2744.2,159.5,66.6
0.123274,354.0,88.2,2349.9,83.3,2740.4,251.2,352.6,2319.8,2733.2,159.4,66.2
0.125274,356.5,105.2,2330.4,107.6,2735.0,279.7,354.2,2308.4,2723,159.3,65.9
0.127274,359.0,126.1,2302.1,131.8,2740.8,285.8,355.6,2299,2713.7,159.2,65.6
0.129274,360.5,139.1,2273.5,148.7,2746.1,266.4,357,2291.4,2705.2,159.1,65.3
0.131274,360.6,135.1,2257.4,160.4,2737.4,234.0,358.2,2285.6,2697.7,159,65
0.133274,360.2,118.8,2257.5,175.1,2718.3,204.1,359.3,2281.2,2691.2,158.9,64.7
0.135274,359.8,101.9,2269.3,196.9,2700.8,189.9,360.2,2278,2685.7,158.7,64.5
0.137274,359.9,92.1,2281.6,223.5,2686.8,198.9,360.9,2275.9,2681.3,158.6,64.2
0.139274,360.4,89.2,2281.8,249.4,2667.9,228.9,361.4,2274.5,2678.1,158.5,64
0.141274,360.4,89.3,2273.8,285.0,2632.5,272.9,361.8,2273.8,2676.2,158.4,63.9
0.143274,359.2,91.8,2268.0,338.1,2591.7,313.3,361.9,2273.6,2675.5,158.3,63.8
