time,f1,b1,f2,b2,f3,b3,f1p,f2p,f3p,f0,intensity
0.025415,225.7,711.2,1868.9,161.9,2643.0,164.2,285.6,1886,2634.7,163.2,61.7
0.027415,245.3,819.3,1875.3,155.2,2660.2,115.6,298,1883,2639.1,162.4,62.6
0.029415,274.1,947.4,1879.3,133.4,2670.4,87.1,318.1,1878.1,2646.1,161.6,63.3
0.031415,351.7,935.9,1878.0,116.7,2675.6,76.6,345.2,1871.6,2655.1,160.7,63.9
0.033415,421.7,816.8,1872.4,109.1,2677.0,79.7,378,1863.8,2665.4,159.9,64.3
0.035415,465.9,722.0,1863.1,106.4,2673.9,91.1,415.4,1854.8,2676.2,159,64.6
0.037415,496.4,679.3,1851.6,104.6,2667.7,102.7,455.9,1845.2,2686.5,158.1,64.8
0.039415,522.4,666.0,1838.8,102.6,2665.0,105.1,498.1,1835.4,2695.7,157.2,64.9
0.041415,553.4,658.4,1825.5,102.8,2671.4,95.3,540.4,1825.5,2702.8,156.3,64.9
0.043415,594.9,645.7,1812.5,107.0,2681.8,79.9,581.6,1816.2,2707.3,155.4,64.8
0.045415,640.2,635.5,1802.4,113.5,2689.8,67.8,620.4,1807.5,2708.8,154.5,64.7
0.047415,675.8,654.0,1797.9,120.2,2694.1,63.5,655.9,1799.9,2707.2,153.7,64.7
0.049415,704.0,719.4,1796.0,128.2,2695.6,66.2,687.3,1793.5,2702.4,152.8,64.6
0.051415,726.5,814.1,1792.9,135.7,2694.1,75.3,714.2,1788.5,2694.7,152.1,64.6
0.053415,736.6,874.3,1787.8,138.1,2689.6,87.6,736.4,1784.9,2684.7,151.3,64.7
0.055415,732.2,854.6,1783.1,136.1,2682.6,101.0,754,1782.7,2673.1,150.6,64.7
0.057415,725.9,780.2,1781.1,134.6,2672.0,117.2,767.4,1781.9,2660.6,149.9,64.7
0.059415,725.6,705.1,1780.8,135.9,2658.7,136.1,777.2,1782.3,2648,149.2,64.6
0.061415,732.7,645.1,1779.3,139.5,2645.3,158.0,784.1,1783.7,2636.4,148.6,64.5
0.063415,751.3,594.5,1778.0,147.0,2631.6,187.8,788.9,1786,2626.3,148,64.4
0.065415,779.3,560.5,1780.6,157.7,2619.0,223.7,792.5,1789,2618.5,147.5,64.2
0.067415,805.0,555.2,1787.3,166.5,2617.2,247.0,795.8,1792.4,2613.4,147,64.1
0.069415,824.6,583.5,1796.7,172.6,2631.0,244.2,799.3,1796,2611.2,146.5,64
0.071415,840.8,627.0,1807.2,177.3,2648.0,223.6,803.9,1799.8,2611.9,146.1,63.9
0.073415,850.7,660.2,1815.2,178.3,2657.3,201.9,809.8,1803.5,2615.3,145.7,63.9
0.075415,851.9,688.3,1818.1,175.8,2657.8,189.1,817.3,1807.1,2620.8,145.3,64
0.077415,847.4,720.1,1816.8,171.1,2648.0,191.3,826.5,1810.5,2627.8,145,64
0.079415,835.3,731.2,1812.6,163.5,2624.6,209.1,837,1813.9,2635.4,144.7,63.9
0.081415,822.5,713.1,1808.6,153.6,2593.2,230.8,848.5,1817.2,2643,144.3,63.9
0.083415,824.5,706.4,1810.0,145.5,2572.2,245.4,860.4,1820.6,2649.5,144,63.8
0.085415,846.9,735.6,1817.8,140.6,2578.0,250.5,872,1824.2,2654.4,143.8,63.7
0.087415,878.9,778.8,1826.0,136.7,2602.6,245.5,882.6,1828.2,2656.9,143.5,63.6
0.089415,905.2,816.0,1831.6,137.3,2630.7,236.7,891.3,1832.7,2656.7,143.2,63.5
0.091415,925.0,845.0,1838.2,147.9,2654.0,229.4,897.4,1838,2653.8,143,63.3
0.093415,941.0,860.4,1849.3,165.2,2667.2,223.4,900.2,1844.1,2648.2,142.7,63.2
0.095415,942.7,858.2,1862.1,173.2,2670.1,221.5,899,1851.3,2640.5,142.5,63
0.097415,919.7,835.2,1872.1,164.1,2666.9,232.1,893.5,1859.5,2631.5,142.2,62.9
0.099415,878.4,785.6,1878.8,146.7,2660.6,262.6,883.3,1869,2622,142,62.9
0.101415,836.5,732.6,1882.4,132.8,2650.7,305.7,868.4,1879.5,2613.3,141.8,62.8
0.103415,800.6,710.3,1884.5,128.6,2635.2,341.5,848.9,1891.2,2606.7,141.5,62.7
0.105415,770.3,734.0,1888.6,138.0,2615.9,364.5,825.1,1904,2603.3,141.3,62.6
0.107415,746.8,792.4,1897.8,161.0,2600.3,388.1,797.4,1917.6,2604.4,141,62.5
0.109415,728.9,854.0,1914.5,187.7,2597.3,429.8,766.4,1932,2610.9,140.8,62.4
0.111415,712.4,900.9,1941.3,202.9,2617.5,507.3,732.8,1946.9,2623.7,140.5,62.3
0.113415,696.7,919.1,1974.1,189.9,2677.4,611.0,697.4,1962.2,2643,140.3,62.2
0.115415,681.3,903.2,1995.7,155.4,2758.0,657.9,661,1977.5,2669,140.1,62.1
0.117415,659.1,877.1,2003.4,128.2,2792.5,638.4,624.5,1992.7,2701.2,139.8,62
0.119415,625.8,855.0,2008.7,115.3,2767.8,624.4,588.5,2007.4,2739,139.6,62
0.121415,587.4,828.3,2017.0,109.4,2707.8,639.7,553.8,2021.5,2781.1,139.4,62
0.123415,558.5,797.8,2026.1,105.1,2651.0,667.1,521.2,2034.7,2826,139.2,61.9
0.125415,536.4,799.3,2037.6,103.2,2636.1,727.5,491.2,2046.8,2872.1,138.9,61.8
0.127415,511.2,880.6,2057.0,105.0,2717.5,888.0,464.2,2057.7,2917.4,138.7,61.6
0.129415,473.8,1077.0,2084.5,104.8,2983.3,909.7,440.8,2067.2,2959.9,138.5,61.4
0.131415,412.2,1473.2,2108.9,99.5,3111.8,616.2,421.2,2075.1,2997.8,138.3,61
0.133415,504.6,1918.2,2116.5,95.1,3143.3,490.1,405.8,2081.4,3029.3,138.1,60.7
0.135415,280.9,1285.5,2101.1,94.8,3150.7,478.2,394.6,2085.9,3052.9,138,60.4
0.137415,315.0,884.6,2066.2,92.0,3132.9,539.6,387.9,2088.7,3067.6,137.8,60.3
0.139415,328.9,629.4,2027.5,82.3,3068.2,618.8,385.6,2089.6,3072.5,137.6,60.2
