time,f1,b1,f2,b2,f3,b3,f1p,f2p,f3p,f0,intensity
0.025753,369.4,110.9,1011.0,251.8,2428.2,279.2,368.2,1009.3,2401.4,164.2,73.3
0.027753,370.0,122.2,1013.3,202.1,2392.4,198.5,375,1014.9,2398.4,164,73.2
0.029753,371.8,141.3,1026.3,173.2,2367.2,162.4,385.8,1024.1,2393.4,163.8,72.9
0.031753,376.7,175.4,1042.1,151.1,2349.8,152.8,400,1036.5,2386.4,163.6,72.4
0.033753,388.2,231.9,1056.9,139.2,2341.7,159.9,416.9,1051.6,2377.4,163.4,71.7
0.035753,412.3,324.6,1072.2,139.9,2341.9,179.5,435.3,1069,2366.5,163.2,70.9
0.037753,459.7,470.3,1089.1,157.9,2349.8,210.0,454.3,1088,2353.7,163.1,70.1
0.039753,525.3,606.9,1104.3,191.8,2361.3,254.4,472.8,1107.9,2339,162.9,69.5
0.041753,556.8,619.8,1119.1,229.3,2372.5,335.0,489.8,1128.2,2322.7,162.8,69.1
0.043753,546.3,534.1,1137.8,246.9,2377.7,447.9,504.5,1148.3,2305,162.7,69
0.045753,530.8,436.4,1162.5,237.8,2365.7,593.5,516,1167.5,2286,162.6,69.1
0.047753,519.9,362.0,1184.4,209.9,2300.9,713.8,523.9,1185.3,2266.1,162.5,69.4
0.049753,512.0,309.2,1201.7,178.5,2224.9,708.7,527.9,1201.4,2245.6,162.5,69.7
0.051753,505.2,275.7,1215.2,150.9,2181.6,664.5,528,1215.5,2225,162.5,70
0.053753,499.2,259.4,1225.7,131.1,2159.7,636.4,524.3,1227.2,2204.7,162.5,70.3
0.055753,493.4,251.6,1235.7,116.9,2144.3,624.0,517.3,1236.6,2185.2,162.6,70.5
0.057753,487.0,245.2,1243.8,107.0,2131.2,615.6,507.5,1243.5,2166.9,162.7,70.7
0.059753,479.4,238.5,1250.2,100.0,2119.9,611.8,495.5,1248.2,2150.5,162.8,70.8
0.061753,472.0,237.0,1255.2,97.5,2116.2,626.4,482.1,1250.7,2136.4,163,70.9
0.063753,465.0,241.9,1259.0,99.1,2123.4,659.8,468.1,1251.2,2125,163.2,71
0.065753,457.8,250.2,1260.1,103.7,2137.4,699.2,454.1,1250.1,2116.7,163.4,71
0.067753,450.4,257.7,1256.5,110.9,2142.5,723.5,440.7,1247.6,2111.7,163.6,71.1
0.069753,441.7,261.2,1248.7,120.8,2132.4,717.0,428.4,1243.9,2110.4,163.9,71.1
0.071753,432.2,257.4,1239.5,131.1,2120.2,672.6,417.6,1239.4,2112.8,164.2,71.1
0.073753,422.5,247.3,1230.8,141.2,2117.8,603.8,408.4,1234.1,2118.7,164.5,71.1
0.075753,413.3,234.1,1223.3,151.9,2129.1,536.0,400.8,1228.5,2128.2,164.8,71.2
0.077753,405.5,219.2,1218.4,160.6,2150.6,490.0,394.7,1222.4,2140.9,165.2,71.3
0.079753,397.4,195.5,1213.5,163.2,2174.1,447.7,390,1216.1,2156.5,165.5,71.5
0.081753,389.2,165.0,1205.2,157.0,2188.6,406.0,386.2,1209.6,2174.4,165.9,71.8
0.083753,381.3,135.4,1193.7,144.9,2201.0,377.8,383,1202.9,2194,166.3,72.1
0.085753,374.8,113.2,1182.6,131.4,2215.6,378.5,380.2,1195.9,2214.8,166.7,72.5
0.087753,369.3,95.6,1173.8,117.9,2232.6,406.6,377.3,1188.6,2235.9,167.1,72.9
0.089753,364.6,80.1,1168.9,105.8,2250.9,457.0,374.1,1180.9,2256.9,167.5,73.3
0.091753,360.7,67.3,1167.4,99.3,2266.0,525.4,370.5,1172.6,2276.8,167.9,73.7
0.093753,356.9,56.4,1167.2,100.1,2278.5,616.4,366.4,1163.8,2295.2,168.3,74.1
0.095753,353.6,47.6,1167.5,107.1,2294.1,679.6,361.9,1154.3,2311.4,168.7,74.5
0.097753,350.5,39.1,1167.9,118.8,2316.7,662.8,357,1144.2,2325,169.1,74.9
0.099753,347.5,30.7,1165.8,136.6,2336.9,567.9,352.1,1133.4,2335.5,169.5,75.2
0.101753,345.3,24.2,1155.7,161.2,2341.5,472.7,347.3,1121.9,2342.8,169.9,75.5
0.103753,343.7,19.4,1131.2,196.2,2334.3,420.3,342.9,1110,2346.7,170.3,75.8
0.105753,342.9,16.6,1098.9,235.8,2326.9,402.8,339.3,1097.5,2347.2,170.7,76.1
0.107753,343.0,14.6,1068.7,278.1,2326.1,410.2,336.7,1084.8,2344.6,171,76.4
0.109753,343.6,13.1,1046.2,319.4,2331.6,442.4,335.2,1071.9,2339.2,171.4,76.6
0.111753,344.4,12.4,1024.5,365.5,2341.1,483.0,334.9,1059.1,2331.2,171.7,76.7
0.113753,345.3,12.4,1002.0,422.9,2350.6,506.9,335.8,1046.6,2321.4,172,76.9
0.115753,346.2,13.0,992.0,477.7,2352.8,514.9,337.8,1034.7,2310.1,172.4,76.9
0.117753,347.0,13.3,1006.8,509.6,2346.4,542.8,340.7,1023.5,2298.2,172.7,76.9
0.119753,347.5,13.2,1035.8,510.5,2330.6,597.3,344.2,1013.2,2286.1,173,76.9
0.121753,348.2,13.0,1056.7,511.5,2297.0,648.4,348,1004.2,2274.7,173.2,76.9
0.123753,348.9,13.5,1054.2,546.1,2251.3,647.6,351.8,996.5,2264.3,173.5,76.8
0.125753,349.9,14.5,1030.8,624.9,2213.4,598.3,355.1,990.4,2255.7,173.7,76.6
0.127753,351.3,15.8,995.8,746.7,2199.3,548.3,357.8,985.9,2249.2,174,76.5
0.129753,352.6,17.1,961.8,873.9,2215.4,524.0,359.5,983.2,2245.2,174.2,76.2
0.131753,353.8,18.0,921.5,959.9,2258.0,479.9,360,982.2,2243.8,174.4,76
