time,f1,b1,f2,b2,f3,b3,f1p,f2p,f3p,f0,intensity
0.025231,294.2,130.5,2143.7,271.0,2906.4,247.5,308.8,2084.3,2903.3,188,75.8
0.027231,298.2,125.9,2117.5,273.3,2885.4,259.1,309.8,2072.4,2902.3,188,76
0.029231,306.0,105.3,2098.9,286.2,2879.8,253.3,311.3,2053,2901,187.9,76.2
0.031231,315.2,83.8,2084.4,321.4,2891.9,235.5,313.4,2026.7,2899.4,187.9,76.4
0.033231,323.1,68.3,2049.8,383.9,2906.5,215.6,315.9,1994.3,2898,187.8,76.5
0.035231,328.5,57.9,1948.2,445.3,2912.2,207.3,318.7,1956.9,2897,187.8,76.7
0.037231,331.5,50.2,1818.2,411.0,2912.6,217.2,321.7,1915.5,2896.8,187.7,76.8
0.039231,333.4,45.8,1749.7,329.3,2904.7,251.9,324.8,1871.4,2897.7,187.6,76.9
0.041231,334.4,44.0,1722.9,267.4,2891.3,280.9,327.9,1825.9,2900,187.6,77
0.043231,335.0,43.4,1710.0,227.2,2892.1,275.2,330.9,1780.2,2903.9,187.5,77
0.045231,335.3,43.1,1700.6,205.0,2911.0,246.6,333.6,1735.6,2909.3,187.4,77
0.047231,335.6,42.7,1688.2,197.9,2932.5,216.0,336.1,1693.1,2916.4,187.3,77.1
0.049231,336.1,42.3,1668.4,203.2,2944.5,191.9,338.2,1653.7,2924.8,187.1,77.1
0.051231,336.6,42.1,1640.6,214.1,2946.4,173.9,340,1618.3,2934.3,187,77.1
0.053231,336.9,41.9,1609.5,219.4,2946.6,158.5,341.3,1587.3,2944.4,186.9,77.2
0.055231,337.3,41.7,1583.6,214.3,2953.3,142.6,342.3,1561.1,2954.5,186.7,77.2
0.057231,338.0,41.7,1567.8,205.9,2965.7,125.0,343,1540.1,2964.1,186.6,77.2
0.059231,339.2,42.1,1559.7,204.1,2974.9,109.0,343.4,1524,2972.5,186.4,77.3
0.061231,340.8,42.3,1554.7,215.0,2975.9,98.9,343.6,1512.7,2979.2,186.2,77.3
0.063231,342.4,41.8,1549.3,240.0,2971.0,93.3,343.6,1505.7,2983.6,186.1,77.3
0.065231,343.8,41.0,1543.3,277.9,2965.0,87.3,343.6,1502.5,2985.1,185.9,77.3
0.067231,344.8,39.9,1536.8,325.3,2959.9,78.9,343.6,1502.5,2983.6,185.7,77.3
0.069231,345.4,37.9,1528.6,374.0,2955.9,69.0,343.7,1504.9,2978.7,185.5,77.3
0.071231,345.8,34.9,1518.2,415.1,2952.0,60.1,343.9,1508.9,2970.5,185.3,77.2
0.073231,346.1,31.8,1508.7,448.3,2947.3,54.6,344.2,1513.9,2959.1,185.1,77.2
0.075231,346.6,29.1,1500.2,476.5,2941.5,53.8,344.7,1519,2945,184.9,77.2
0.077231,347.1,26.9,1487.0,502.2,2934.8,57.6,345.5,1523.7,2928.5,184.7,77.1
0.079231,347.8,25.6,1468.6,540.5,2927.5,65.4,346.3,1527.5,2910.3,184.5,77.1
0.081231,348.7,25.6,1452.8,610.4,2919.4,76.6,347.3,1529.9,2891.1,184.2,77
0.083231,349.7,26.3,1450.5,719.6,2910.6,89.7,348.4,1530.8,2871.7,184,76.9
0.085231,350.8,26.8,1467.7,846.8,2901.4,105.7,349.5,1530,2852.9,183.8,76.8
0.087231,351.6,26.3,1501.9,958.8,2888.1,128.9,350.7,1527.6,2835.4,183.6,76.8
0.089231,352.2,25.5,1544.8,1069.1,2862.0,164.5,351.7,1523.9,2819.9,183.5,76.7
0.091231,352.6,24.8,1582.8,1223.3,2812.6,208.2,352.7,1519.1,2807,183.3,76.6
0.093231,353.0,24.2,1589.9,1395.0,2748.0,233.0,353.5,1513.7,2797.1,183.1,76.5
0.095231,353.0,23.3,1559.6,1449.8,2701.3,232.6,354.1,1508.3,2790.4,183,76.4
0.097231,352.8,22.1,1525.8,1345.1,2689.4,240.0,354.6,1503.3,2787,182.8,76.4
0.099231,352.6,21.2,1504.6,1172.3,2711.9,273.9,354.8,1499.4,2786.8,182.7,76.3
0.101231,352.4,20.5,1489.3,994.8,2766.2,324.6,354.9,1497.1,2789.5,182.6,76.2
0.103231,352.3,19.9,1476.6,858.6,2832.5,362.5,354.8,1496.9,2794.6,182.5,76.2
0.105231,352.5,19.6,1478.6,808.7,2878.6,373.3,354.6,1499.4,2801.6,182.4,76.1
0.107231,352.9,19.7,1509.2,832.7,2885.2,357.4,354.4,1504.7,2809.9,182.3,76.1
0.109231,353.4,19.7,1555.5,827.0,2861.2,315.2,354.1,1513.3,2818.9,182.2,76
0.111231,353.9,19.5,1581.1,734.8,2833.7,262.1,353.8,1525,2827.8,182.2,76
0.113231,354.6,19.4,1582.6,631.4,2819.4,217.7,353.6,1540,2836.1,182.1,76
0.115231,355.2,19.4,1576.4,565.9,2820.7,183.0,353.5,1557.9,2843.3,182.1,76
0.117231,355.8,19.5,1574.0,529.6,2831.4,152.9,353.6,1578.4,2848.9,182.1,76
0.119231,356.3,19.3,1579.1,489.0,2843.4,128.1,353.7,1601.1,2852.8,182.1,76
0.121231,356.5,18.6,1585.5,420.3,2852.2,112.3,354.1,1625.4,2854.7,182.1,76
0.123231,356.6,17.4,1590.2,339.2,2857.7,108.9,354.5,1650.5,2854.9,182.1,76
0.125231,356.7,16.3,1602.8,272.8,2860.3,121.2,355.1,1675.8,2853.4,182.1,76.1
0.127231,356.8,15.6,1629.6,226.4,2857.8,151.7,355.8,1700.6,2850.5,182.1,76.1
0.129231,357.1,15.4,1665.2,194.1,2845.9,193.1,356.5,1723.9,2846.7,182.2,76.2
0.131231,357.3,15.9,1701.0,172.9,2828.0,213.8,357.2,1745.1,2842.4,182.2,76.3
0.133231,357.5,16.7,1736.9,161.0,2819.8,195.1,357.9,1763.6,2838.1,182.3,76.3
0.135231,357.6,17.9,1776.9,157.0,2824.6,165.7,358.4,1778.6,2834.2,182.3,76.4
0.137231,357.5,19.1,1822.9,156.8,2833.4,146.6,358.9,1789.7,2831.1,182.3,76.6
0.139231,357.1,19.8,1877.2,153.9,2840.6,138.1,359.1,1796.5,2829.1,182.4,76.7
0.141231,356.6,20.0,1935.2,144.2,2843.5,134.7,359.2,1798.8,2828.4,182.4,76.8
