time,f1,b1,f2,b2,f3,b3,f1p,f2p,f3p,f0,intensity
0.025449,561.0,384.7,1230.9,328.2,2570.7,185.8,640.6,1259.3,2576.1,125.7,62.1
0.027449,572.9,340.9,1232.3,308.1,2575.6,140.5,641.7,1259.9,2573.1,125.9,63
0.029449,587.6,309.7,1235.8,324.4,2563.8,119.1,643.6,1260.9,2568.1,126.1,63.9
0.031449,602.2,280.0,1240.3,353.9,2547.6,116.4,646.1,1262.2,2561.2,126.4,64.6
0.033449,613.7,255.8,1242.9,370.5,2534.5,116.9,649.4,1264,2552.6,126.6,65.2
0.035449,623.0,244.9,1245.5,368.2,2527.4,114.8,653.4,1266.1,2542.3,126.9,65.6
0.037449,634.6,246.0,1252.0,349.2,2525.4,117.4,658.1,1268.7,2530.5,127.2,66
0.039449,649.5,260.0,1257.7,321.0,2529.7,135.1,663.5,1271.7,2517.4,127.5,66.2
0.041449,666.1,281.7,1257.0,293.6,2544.5,167.8,669.5,1275.2,2503.2,127.9,66.3
0.043449,681.5,304.0,1254.6,277.6,2487.2,1006.4,676.2,1279.2,2488,128.2,66.5
0.045449,700.8,332.7,1255.3,274.1,2446.3,884.1,683.5,1283.6,2472.2,128.6,66.6
0.047449,723.1,360.6,1258.0,272.1,2406.2,760.6,691.4,1288.6,2456,129,66.7
0.049449,744.1,377.8,1261.8,263.0,2366.6,642.8,699.9,1294.1,2439.6,129.4,66.8
0.051449,761.9,391.7,1268.7,261.0,2348.9,604.1,708.9,1300.1,2423.3,129.8,66.8
0.053449,780.7,413.7,1282.8,281.9,2346.3,652.2,718.4,1306.7,2407.3,130.2,66.8
0.055449,801.4,433.9,1310.1,322.6,2342.8,763.8,728.4,1313.9,2391.9,130.6,66.8
0.057449,811.7,431.3,1340.3,343.7,2338.1,848.1,738.8,1321.7,2377.3,131.1,66.7
0.059449,809.2,405.8,1359.1,331.5,2321.6,849.7,749.5,1330,2363.7,131.6,66.7
0.061449,808.7,376.0,1371.0,324.5,2294.0,847.8,760.6,1339,2351.4,132.1,66.6
0.063449,820.7,353.6,1391.6,348.1,2270.5,937.1,772,1348.7,2340.5,132.6,66.5
0.065449,832.6,332.5,1417.7,364.4,2286.2,1070.4,783.6,1358.9,2331.3,133.1,66.5
0.067449,831.3,308.9,1433.8,337.2,2364.4,1113.3,795.4,1369.8,2323.8,133.6,66.4
0.069449,820.2,286.8,1439.6,290.9,2441.7,983.1,807.3,1381.3,2318.3,134.2,66.3
0.071449,811.7,272.7,1448.1,255.5,2483.7,808.3,819.2,1393.4,2314.7,134.8,66.3
0.073449,815.5,279.7,1462.5,248.8,2516.2,777.7,831.1,1406.2,2313.3,135.4,66.3
0.075449,830.8,308.2,1483.0,263.6,2529.4,892.8,842.9,1419.5,2313.9,136,66.4
0.077449,850.8,345.5,1502.7,282.9,2477.2,1015.8,854.6,1433.5,2316.7,136.6,66.4
0.079449,867.9,379.3,1513.2,289.1,2405.4,1049.8,866.1,1448,2321.5,137.2,66.5
0.081449,874.4,402.1,1514.0,276.7,2370.7,1036.7,877.2,1463,2328.4,137.9,66.6
0.083449,871.0,424.2,1511.7,255.2,2344.5,1033.6,888,1478.6,2337.3,138.5,66.7
0.085449,862.4,446.0,1511.3,235.8,2302.9,1046.9,898.4,1494.7,2348,139.2,66.7
0.087449,859.0,465.6,1516.9,221.6,2297.9,1144.7,908.2,1511.2,2360.3,139.9,66.7
0.089449,868.9,483.0,1529.6,208.8,2450.9,1515.2,917.5,1528.1,2374.2,140.6,66.8
0.091449,882.4,501.2,1544.2,201.2,2441.8,344.4,926.1,1545.4,2389.4,141.3,66.8
0.093449,900.8,526.4,1564.4,200.5,2464.9,332.2,934,1563.1,2405.8,142,66.9
0.095449,919.5,537.1,1584.8,193.4,2503.5,323.7,941.2,1581,2423,142.8,67.1
0.097449,935.2,534.9,1602.4,177.1,2545.7,318.9,947.5,1599.2,2440.8,143.5,67.3
0.099449,946.0,527.0,1615.6,157.6,2458.1,1578.5,952.9,1617.6,2459,144.2,67.6
0.101449,948.9,504.7,1624.2,136.0,2315.6,1213.7,957.3,1636.1,2477.4,144.9,67.9
0.103449,946.7,478.7,1630.6,117.0,2299.5,987.3,960.7,1654.8,2495.5,145.6,68.1
0.105449,942.3,468.4,1638.8,106.5,2349.2,843.6,963.1,1673.6,2513.3,146.4,68.3
0.107449,939.7,473.0,1649.5,109.8,2401.4,754.9,964.4,1692.3,2530.3,147.1,68.4
0.109449,946.2,480.5,1665.2,123.6,2454.7,745.5,964.6,1711.1,2546.4,147.8,68.4
0.111449,962.1,488.1,1685.0,136.6,2586.6,863.9,963.7,1729.8,2561.2,148.5,68.5
0.113449,981.5,493.9,1706.7,140.0,2577.4,398.3,961.6,1748.4,2574.7,149.2,68.6
0.115449,993.1,496.6,1722.5,134.2,2546.6,346.9,958.3,1766.8,2586.5,149.9,68.7
0.117449,994.1,514.1,1734.4,131.9,2546.2,350.8,953.9,1785.1,2596.5,150.6,68.7
0.119449,985.0,553.2,1747.0,142.6,2589.9,399.3,948.3,1803.2,2604.5,151.3,68.6
0.121449,962.8,578.6,1764.9,163.7,2504.4,1655.2,941.5,1821.1,2610.4,152,68.4
0.123449,929.7,535.8,1785.4,178.3,2388.4,1504.8,933.6,1838.7,2614,152.6,68.1
0.125449,899.4,446.6,1802.2,176.6,2408.7,1626.4,924.6,1856,2615.4,153.3,67.8
0.127449,879.7,359.0,1816.9,170.6,2571.4,2168.7,914.5,1873.1,2614.4,153.9,67.4
0.129449,870.8,309.2,1838.9,175.2,2675.1,400.2,903.4,1889.9,2611,154.6,67.2
0.131449,866.2,297.1,1878.2,176.3,2643.2,399.8,891.2,1906.3,2605.3,155.2,67
0.133449,862.5,311.4,1912.7,159.3,2646.1,371.3,878.2,1922.5,2597.4,155.8,66.9
0.135449,858.0,325.4,1934.7,141.3,2655.7,339.3,864.2,1938.3,2587.2,156.5,66.9
0.137449,851.1,311.5,1950.0,129.1,2661.3,318.6,849.5,1953.8,2575.1,157.1,67
0.139449,840.0,271.3,1964.5,120.9,2666.1,311.9,834,1969,2561,157.7,67.2
0.141449,827.8,231.0,1978.2,120.8,2670.3,325.9,817.9,1983.9,2545.2,158.3,67.4
0.143449,813.9,207.4,1992.0,137.9,2659.1,368.0,801.2,1998.5,2528,158.9,67.7
0.145449,799.9,199.6,2007.1,169.6,2617.8,430.4,784,2012.8,2509.5,159.5,68
0.147449,789.1,195.9,2024.7,194.9,2550.3,470.7,766.4,2026.9,2490,160,68.4
0.149449,779.4,196.0,2043.1,202.7,2487.3,458.0,748.5,2040.6,2469.8,160.6,68.7
0.151449,763.5,199.3,2063.4,206.9,2434.9,434.8,730.4,2054.2,2449.2,161.2,68.9
0.153449,742.9,201.6,2083.8,216.4,2392.0,434.4,712.1,2067.4,2428.5,161.8,69.1
0.155449,722.7,201.7,2109.6,226.2,2351.1,482.8,693.8,2080.5,2408,162.3,69.2
0.157449,706.5,204.7,2140.3,205.7,2320.6,631.3,675.6,2093.4,2387.9,162.9,69.2
0.159449,692.3,212.0,2156.1,167.0,2329.5,845.2,657.5,2106,2368.7,163.4,69.3
0.161449,675.0,218.2,2168.9,149.9,2356.7,1003.4,639.6,2118.5,2350.6,164,69.3
0.163449,652.1,216.0,2187.8,151.4,2344.1,1084.0,622.1,2130.8,2333.8,164.6,69.4
0.165449,623.4,203.3,2211.9,155.6,2263.7,1161.3,604.9,2142.9,2318.8,165.1,69.5
0.167449,595.9,188.3,2177.5,1205.8,2230.0,155.3,588.2,2154.9,2305.6,165.7,69.5
0.169449,568.8,181.3,2169.9,1276.6,2239.2,159.6,572,2166.6,2294.6,166.2,69.6
0.171449,542.8,183.2,2246.8,1370.6,2247.4,174.5,556.4,2178.2,2286,166.8,69.7
0.173449,516.5,185.5,2267.8,198.6,2332.5,1352.6,541.5,2189.6,2279.9,167.3,69.9
0.175449,494.3,183.7,2299.2,218.0,2345.9,1231.2,527.2,2200.8,2276.6,167.8,70.1
0.177449,476.3,179.7,2326.2,225.5,2339.0,1122.1,513.8,2211.7,2276,168.4,70.3
0.179449,462.8,175.9,2336.8,239.2,2346.5,1017.5,501,2222.4,2278.3,168.9,70.6
0.181449,450.1,172.2,2341.6,274.5,2343.6,898.0,489.1,2232.9,2283.6,169.4,70.9
0.183449,438.2,169.7,2338.2,823.2,2350.1,322.5,478,2243,2291.8,169.9,71.2
0.185449,428.0,169.6,2352.4,880.8,2364.6,350.0,467.7,2252.8,2303,170.4,71.5
0.187449,421.2,171.2,2351.4,1158.8,2393.2,325.1,458.3,2262.3,2317,170.9,71.8
0.189449,417.7,173.4,2250.6,1666.5,2432.1,268.9,449.7,2271.3,2333.7,171.3,72.1
0.191449,417.8,175.4,2059.4,2196.7,2457.7,214.4,442,2279.9,2353.1,171.8,72.4
0.193449,421.4,177.1,1914.9,2920.8,2466.6,178.1,435,2288.1,2374.9,172.2,72.6
0.195449,427.2,177.9,2467.5,167.7,2481.7,3416.0,428.8,2295.7,2398.9,172.6,72.8
0.197449,430.8,174.0,2474.4,180.5,2478.5,2678.5,423.4,2302.7,2424.9,173,73
0.199449,430.5,166.0,2334.9,2364.8,2496.2,202.5,418.7,2309,2452.7,173.4,73.2
0.201449,429.4,159.5,2249.5,2238.1,2518.6,218.0,414.7,2314.8,2482,173.7,73.4
0.203449,430.0,155.5,2277.0,2141.6,2531.4,250.1,411.3,2319.8,2512.4,174,73.6
0.205449,430.8,151.4,2360.5,1943.3,2540.1,320.5,408.5,2324,2543.6,174.3,73.7
0.207449,428.2,142.1,2399.7,1646.3,2558.8,429.9,406.3,2327.4,2575.4,174.6,73.9
0.209449,422.2,128.1,2384.0,1487.9,2576.4,491.7,404.5,2330,2607.4,174.8,73.9
0.211449,416.7,114.2,2376.4,1644.0,2552.1,457.1,403.1,2331.7,2639.2,175.1,74
0.213449,413.7,106.3,2319.9,2139.7,2517.3,368.7,402.1,2332.6,2670.5,175.3,74.1
0.215449,412.2,102.6,2093.0,2750.6,2503.1,285.2,401.4,2332.4,2701.1,175.4,74.1
0.217449,410.9,100.4,1823.7,2983.8,2509.7,234.1,401,2331.4,2730.4,175.6,74.1
0.219449,408.8,97.5,1674.1,2932.0,2531.5,206.2,400.8,2329.3,2758.4,175.7,74.1
0.221449,406.8,94.7,1689.6,2874.7,2562.2,192.8,400.7,2326.3,2784.6,175.9,74.1
0.223449,405.5,92.8,1952.6,2677.2,2599.0,183.5,400.7,2322.3,2808.9,176,74.1
0.225449,405.0,91.3,2131.9,2125.8,2631.5,176.8,400.7,2317.3,2830.9,176,74.1
0.227449,404.2,88.6,2209.3,1723.1,2655.5,178.7,400.7,2311.4,2850.5,176.1,74.1
0.229449,402.7,84.9,2290.3,1508.3,2670.1,202.7,400.7,2304.5,2867.6,176.2,74.1
0.231449,400.9,81.5,2404.9,1355.7,2679.8,261.0,400.6,2296.8,2881.8,176.2,74.2
0.233449,399.0,78.2,2531.9,1126.1,2684.9,374.4,400.4,2288.1,2893.3,176.2,74.2
0.235449,397.2,75.0,2602.2,579.9,2707.6,791.2,400.1,2278.6,2901.8,176.2,74.3
0.237449,395.9,72.3,2512.4,418.4,2854.6,861.1,399.5,2268.4,2907.3,176.2,74.3
0.239449,394.9,70.6,2493.8,310.2,2897.6,980.7,398.8,2257.4,2909.9,176.2,74.3
0.241449,394.0,69.6,2487.2,241.9,2927.9,1152.8,398,2245.8,2909.6,176.2,74.4
0.243449,393.5,69.3,2476.3,208.8,3007.2,1285.4,396.9,2233.6,2906.5,176.1,74.4
0.245449,393.9,69.3,2455.5,200.1,3145.7,1278.2,395.6,2220.9,2900.7,176.1,74.4
0.247449,394.9,68.9,2429.3,208.9,3269.5,1112.8,394.1,2207.7,2892.4,176.1,74.3
0.249449,395.0,67.6,2409.9,232.5,3343.3,935.8,392.4,2194.3,2881.6,176,74.3
0.251449,393.3,66.3,2421.2,271.5,3404.4,990.6,390.6,2180.6,2868.8,175.9,74.3
0.253449,389.7,65.0,2473.3,307.4,3495.6,1394.3,388.6,2166.8,2854,175.9,74.3
0.255449,386.0,62.9,2523.8,311.1,3552.6,1885.4,386.4,2153,2837.6,175.8,74.2
0.257449,383.0,59.9,2541.7,322.5,3303.4,1950.1,384.2,2139.3,2819.8,175.7,74.2
0.259449,380.0,56.0,2540.0,336.8,3077.0,1716.7,381.9,2125.7,2800.9,175.6,74.2
0.261449,376.1,50.4,2545.6,301.9,2982.1,2125.1,379.5,2112.5,2781.3,175.5,74.1
0.263449,372.8,45.7,2363.5,3866.4,2555.2,240.6,377,2099.6,2761.3,175.4,74.1
0.265449,370.7,43.4,1638.0,2551.5,2561.2,192.2,374.6,2087.2,2741.1,175.3,74
0.267449,369.8,43.4,1537.8,2304.2,2562.6,169.6,372.3,2075.3,2721.1,175.2,74
0.269449,369.5,44.2,1465.4,2430.6,2557.6,168.9,370,2064.2,2701.7,175.1,73.9
0.271449,369.1,44.0,1385.5,2849.7,2540.7,182.0,367.8,2053.8,2683.1,175,73.8
0.273449,368.3,42.7,1270.1,3594.6,2511.9,184.3,365.7,2044.3,2665.5,174.9,73.7
0.275449,366.9,41.2,1228.4,4415.7,2488.1,149.2,363.9,2035.7,2649.4,174.8,73.6
0.277449,365.1,39.9,1728.0,4395.7,2481.5,109.6,362.2,2028.1,2634.9,174.7,73.5
0.279449,363.6,38.9,2358.7,3460.9,2478.8,82.9,360.7,2021.5,2622.2,174.6,73.4
0.281449,362.0,37.3,2421.8,2809.3,2474.3,65.9,359.4,2016.1,2611.5,174.5,73.2
0.283449,359.5,33.8,2276.0,2642.2,2466.2,54.5,358.5,2011.8,2603.1,174.4,73
0.285449,356.1,29.1,2123.5,2333.9,2453.2,51.6,357.8,2008.8,2596.9,174.3,72.7
0.287449,351.7,24.1,2115.6,1960.6,2432.0,58.0,357.3,2006.9,2593.2,174.2,72.3
0.289449,346.8,20.4,2194.1,1749.1,2402.8,69.6,357.2,2006.3,2592,174.1,71.8
