time,f1,b1,f2,b2,f3,b3,f1p,f2p,f3p,f0,intensity
0.025531,553.9,226.8,1052.6,475.1,2613.6,165.4,592.1,1153.1,2623.5,130.2,63.9
0.027531,577.0,205.9,1085.9,519.1,2622.5,146.6,594,1157.2,2624.2,130.2,64.7
0.029531,599.0,182.4,1133.9,575.4,2630.8,136.7,597.2,1163.9,2625.5,130.2,65.5
0.031531,610.7,161.2,1181.1,582.2,2638.0,122.4,601.5,1173,2627.2,130.3,66.1
0.033531,617.6,148.7,1226.8,553.0,2643.9,108.1,606.9,1184.2,2629.3,130.3,66.7
0.035531,625.0,147.4,1271.2,506.3,2647.8,100.2,613.1,1197.3,2631.9,130.4,67.1
0.037531,633.1,157.1,1295.8,452.2,2650.1,97.6,620.1,1211.8,2634.8,130.4,67.4
0.039531,639.0,168.3,1294.6,391.1,2652.4,94.3,627.5,1227.5,2638.1,130.5,67.6
0.041531,642.5,173.9,1285.7,324.3,2653.2,88.6,635.3,1243.8,2641.6,130.6,67.8
0.043531,647.5,183.6,1281.6,268.9,2648.9,86.4,643.1,1260.6,2645.5,130.7,67.8
0.045531,655.8,207.8,1280.4,235.7,2638.9,92.3,650.9,1277.4,2649.5,130.8,67.8
0.047531,664.4,238.6,1278.5,218.4,2630.0,102.0,658.3,1293.9,2653.7,130.9,67.8
0.049531,669.1,259.0,1278.5,210.9,2627.0,111.4,665.1,1309.8,2658.1,131.1,67.7
0.051531,670.7,267.8,1285.9,218.7,2627.4,122.7,671.2,1325.1,2662.6,131.2,67.6
0.053531,672.7,272.3,1302.3,239.7,2629.6,134.8,676.4,1339.5,2667.3,131.4,67.5
0.055531,675.8,270.1,1323.8,256.5,2636.7,140.4,680.5,1353,2672,131.6,67.4
0.057531,678.2,256.0,1343.8,253.7,2651.0,136.2,683.5,1365.6,2676.7,131.8,67.4
0.059531,678.5,233.1,1360.9,234.9,2673.5,128.1,685.1,1377.2,2681.5,132,67.4
0.061531,676.9,212.4,1374.8,213.0,2699.9,118.2,685.3,1388,2686.2,132.2,67.4
0.063531,673.7,198.2,1383.8,198.3,2719.4,107.4,684.2,1398,2690.9,132.4,67.4
0.065531,669.5,189.4,1390.8,196.8,2728.4,99.8,681.6,1407.4,2695.5,132.6,67.4
0.067531,666.2,190.4,1403.2,218.3,2729.9,97.2,677.6,1416.2,2700,132.9,67.4
0.069531,665.3,200.2,1425.5,262.5,2728.6,96.9,672.2,1424.6,2704.2,133.1,67.4
0.071531,664.9,207.5,1450.9,306.6,2728.8,97.1,665.5,1432.6,2708.2,133.4,67.3
0.073531,663.5,211.0,1472.9,343.7,2731.5,100.1,657.7,1440.2,2711.8,133.6,67.2
0.075531,662.0,219.4,1494.6,391.5,2735.6,108.9,648.7,1447.5,2714.9,133.9,67.1
0.077531,659.3,233.8,1513.1,442.7,2739.9,119.4,638.8,1454.3,2717.5,134.2,67
0.079531,651.7,250.1,1515.2,455.6,2742.2,124.6,628.1,1460.5,2719.5,134.5,66.9
0.081531,636.8,272.6,1498.2,412.4,2739.0,128.8,616.7,1466.1,2720.7,134.8,66.8
0.083531,613.8,300.7,1474.8,337.6,2727.1,143.1,604.7,1470.9,2721,135,66.8
0.085531,587.4,310.4,1456.8,262.1,2706.7,169.8,592.4,1474.6,2720.5,135.3,66.8
0.087531,564.9,287.2,1445.7,200.8,2686.7,198.2,579.8,1477.1,2719,135.6,66.8
0.089531,546.9,251.6,1439.9,158.4,2674.4,223.2,567.1,1478.2,2716.4,135.9,66.9
0.091531,532.6,221.4,1439.6,133.2,2664.2,243.7,554.4,1477.8,2712.7,136.2,67
0.093531,524.7,198.3,1443.7,119.7,2652.8,244.0,541.8,1475.7,2708,136.5,67.1
0.095531,521.4,173.8,1448.5,110.5,2651.4,217.4,529.4,1471.9,2702.3,136.8,67.2
0.097531,518.1,145.9,1449.3,104.8,2668.2,179.5,517.3,1466.4,2695.5,137.1,67.3
0.099531,512.1,120.4,1444.9,104.2,2690.1,145.7,505.5,1459.4,2687.8,137.4,67.3
0.101531,504.6,103.4,1438.0,108.1,2701.5,127.6,494.1,1451,2679.4,137.7,67.3
0.103531,496.0,97.2,1432.3,115.9,2699.2,128.7,483.1,1441.6,2670.3,138,67.2
0.105531,485.8,100.7,1430.8,127.9,2682.2,144.9,472.5,1431.5,2660.8,138.3,67.1
0.107531,474.4,107.1,1433.3,140.3,2653.9,164.3,462.4,1421.1,2651,138.6,67
0.109531,461.2,107.9,1436.4,150.3,2632.0,176.7,452.6,1411,2641.1,138.8,66.9
0.111531,444.7,102.8,1438.2,164.7,2635.6,181.4,443.3,1401.8,2631.4,139.1,66.9
0.113531,427.8,94.0,1436.6,190.8,2658.0,178.2,434.4,1394,2622.1,139.4,67
0.115531,416.2,83.3,1425.3,230.8,2674.5,178.1,425.8,1388.2,2613.4,139.6,67
0.117531,408.9,74.3,1404.7,281.4,2673.5,198.2,417.5,1384.9,2605.6,139.9,67.1
0.119531,400.6,68.3,1385.8,340.1,2653.9,249.0,409.6,1384.7,2598.7,140.1,67.2
0.121531,391.2,64.0,1375.5,409.0,2614.5,323.2,401.9,1387.8,2593,140.3,67.3
0.123531,385.4,61.6,1369.4,498.2,2565.0,376.0,394.5,1394.7,2588.5,140.5,67.4
0.125531,383.7,62.5,1361.9,625.7,2530.4,370.8,387.3,1405.5,2585.4,140.7,67.4
0.127531,382.5,65.7,1368.5,794.0,2524.7,346.5,380.4,1420.2,2583.7,140.9,67.3
0.129531,379.4,68.3,1420.8,955.4,2542.6,361.1,373.7,1438.7,2583.3,141.1,67.2
0.131531,375.2,69.1,1504.8,1019.5,2576.7,420.2,367.2,1460.7,2584.2,141.3,67.1
0.133531,370.2,69.9,1574.8,1026.8,2615.3,508.6,361.1,1485.7,2586.4,141.4,66.9
0.135531,363.4,69.9,1600.6,1090.5,2614.7,586.2,355.2,1513.3,2589.5,141.6,66.7
0.137531,353.9,67.8,1585.0,1195.7,2567.0,571.2,349.6,1542.6,2593.5,141.7,66.4
0.139531,343.9,64.9,1563.9,1259.7,2544.3,494.5,344.5,1573,2598.2,141.9,66.2
0.141531,336.4,62.2,1543.1,1247.0,2556.6,438.9,339.7,1603.5,2603.3,142,65.9
0.143531,333.0,60.2,1513.2,1144.8,2583.0,402.9,335.3,1633.2,2608.5,142.1,65.5
0.145531,332.5,60.7,1487.7,1040.5,2601.0,395.3,331.4,1661.3,2613.7,142.2,65.1
0.147531,332.8,65.6,1501.8,1050.3,2605.3,457.9,328.1,1686.7,2618.5,142.3,64.6
0.149531,331.5,71.9,1623.0,1201.2,2598.2,664.1,325.3,1708.8,2622.8,142.4,64
0.151531,326.7,71.2,1913.2,1107.0,2618.7,1212.7,323,1726.8,2626.4,142.5,63.4
0.153531,319.0,63.3,1918.7,722.7,2738.3,1206.2,321.4,1740.1,2629,142.6,63
0.155531,312.3,56.5,1831.2,551.4,2677.2,767.0,320.5,1748.3,2630.7,142.6,62.7
0.157531,310.2,48.9,1745.1,463.7,2641.1,509.5,320.1,1751,2631.3,142.7,62.8
