time,f1,b1,f2,b2,f3,b3,f1p,f2p,f3p,f0,intensity
0.025299,350.6,66.7,2507.0,122.0,3265.3,123.2,351.7,2492.1,3292.8,184.1,69.7
0.027299,348.8,60.2,2509.2,91.7,3257.9,130.2,351.9,2494.6,3290.4,183.9,69.7
0.029299,348.3,57.4,2515.1,75.0,3251.5,149.4,352.1,2498.8,3286.5,183.8,69.8
0.031299,348.2,54.7,2526.3,63.0,3245.8,179.7,352.5,2504.6,3280.9,183.6,70
0.033299,348.7,50.6,2540.9,53.5,3244.4,211.8,353,2511.9,3273.9,183.5,70.1
0.035299,349.9,45.7,2554.9,45.2,3254.1,235.5,353.6,2520.5,3265.3,183.3,70.3
0.037299,351.2,41.3,2562.5,40.1,3275.9,244.6,354.3,2530.2,3255.3,183.1,70.5
0.039299,352.9,38.1,2563.6,39.2,3299.1,242.8,355.1,2541,3244,183,70.7
0.041299,354.9,35.6,2561.9,41.7,3316.7,234.6,355.9,2552.6,3231.4,182.8,70.8
0.043299,357.0,33.8,2560.6,48.3,3327.5,227.7,356.8,2564.8,3217.5,182.6,71
0.045299,359.1,32.9,2562.0,61.4,3334.5,233.4,357.7,2577.4,3202.5,182.4,71.1
0.047299,360.8,32.5,2569.2,88.5,3342.7,265.9,358.7,2590.1,3186.4,182.2,71.1
0.049299,362.2,32.3,2434.8,5713.2,2586.5,129.8,359.7,2602.8,3169.4,182,71.1
0.051299,363.7,32.6,2608.0,164.6,2781.2,4441.3,360.7,2615.2,3151.6,181.8,71.1
0.053299,365.2,33.4,2624.7,181.6,3374.4,516.0,361.7,2627.1,3133,181.5,71.1
0.055299,366.7,34.2,2636.1,180.5,3357.8,567.7,362.7,2638.2,3113.8,181.3,71
0.057299,368.1,34.5,2648.4,161.6,3338.5,554.0,363.6,2648.5,3094.2,181.1,71
0.059299,369.1,34.0,2660.3,134.6,3028.0,5725.6,364.5,2657.6,3074.2,180.9,70.9
0.061299,369.8,33.4,2667.7,113.7,2989.6,4365.8,365.3,2665.5,3054,180.7,70.9
0.063299,370.6,33.2,2670.6,98.2,3028.6,3748.2,366.1,2672,3033.7,180.5,70.9
0.065299,371.5,33.3,2669.5,85.7,3075.0,3546.7,366.8,2676.9,3013.4,180.3,70.9
0.067299,372.0,33.0,2665.7,76.4,3073.6,3419.5,367.3,2680.3,2993.3,180.1,70.9
0.069299,371.9,32.3,2660.7,69.8,3014.5,3298.0,367.8,2682,2973.6,179.9,70.9
0.071299,371.5,31.6,2656.6,66.5,2966.1,3287.3,368.2,2681.9,2954.3,179.7,71
0.073299,371.1,30.8,2654.5,67.2,2896.6,3125.9,368.5,2680.2,2935.6,179.5,71.1
0.075299,370.7,29.5,2653.5,74.4,2838.6,2713.8,368.6,2676.8,2917.5,179.3,71.1
0.077299,369.9,27.9,2651.4,90.1,2831.6,2270.5,368.7,2671.8,2900.3,179.1,71.2
0.079299,368.7,26.2,2647.1,116.9,2845.7,1871.9,368.6,2665.2,2884,179,71.2
0.081299,367.1,24.4,2642.5,153.1,2841.2,1560.4,368.4,2657.2,2868.7,178.8,71.3
0.083299,365.3,22.5,2640.6,197.5,2807.1,1329.3,368.1,2647.8,2854.5,178.7,71.3
0.085299,363.4,20.6,2642.7,252.7,2767.7,1152.1,367.6,2637.2,2841.4,178.5,71.3
0.087299,361.7,19.4,2647.4,302.2,2763.1,1062.2,367.1,2625.5,2829.7,178.4,71.3
0.089299,360.6,19.0,2653.2,322.4,2802.4,1078.3,366.4,2613,2819.2,178.2,71.3
0.091299,360.1,19.1,2663.2,318.6,2865.6,1170.3,365.7,2599.7,2810,178.1,71.3
0.093299,359.9,19.5,2675.6,313.2,2906.1,1272.7,364.8,2585.9,2802.2,178,71.3
0.095299,359.7,19.6,2692.4,320.2,2857.0,1333.7,363.9,2571.7,2795.8,177.9,71.3
0.097299,359.3,19.4,2704.4,1305.0,2719.5,330.4,362.9,2557.2,2790.7,177.7,71.3
0.099299,358.3,18.6,2548.0,1215.6,2749.3,322.3,361.8,2542.8,2787,177.6,71.2
0.101299,356.7,17.2,2449.7,1105.3,2772.3,315.3,360.7,2528.5,2784.6,177.5,71.2
0.103299,355.0,15.5,2420.3,1011.2,2793.9,324.7,359.6,2514.5,2783.4,177.4,71.1
0.105299,353.8,14.1,2433.3,965.0,2815.1,322.5,358.4,2500.9,2783.4,177.3,71
0.107299,353.6,13.0,2467.4,984.4,2824.4,290.6,357.2,2487.8,2784.6,177.1,70.9
0.109299,354.1,12.6,2498.7,1045.0,2820.9,257.6,356,2475.3,2786.8,177,70.7
0.111299,354.7,12.8,2512.0,1104.7,2814.8,246.4,354.8,2463.6,2790,176.9,70.6
0.113299,355.0,13.3,2515.2,1138.4,2809.8,267.0,353.7,2452.7,2794,176.7,70.6
0.115299,354.5,13.6,2515.6,1147.8,2807.1,307.2,352.5,2442.6,2798.8,176.5,70.5
0.117299,353.6,13.6,2487.3,1135.7,2813.0,330.0,351.5,2433.3,2804.2,176.4,70.4
0.119299,352.4,13.5,2416.0,1113.2,2828.2,291.8,350.4,2424.9,2810.2,176.2,70.3
0.121299,351.5,13.3,2345.2,1096.5,2838.0,221.8,349.4,2417.2,2816.5,175.9,70.3
0.123299,351.1,13.1,2306.9,1102.9,2839.9,159.1,348.5,2410.4,2823.2,175.7,70.2
0.125299,351.1,12.6,2303.2,1139.7,2837.2,116.9,347.7,2404.3,2830,175.4,70.2
0.127299,350.9,11.7,2307.6,1186.8,2833.2,90.0,346.9,2398.9,2836.8,175.1,70.2
0.129299,350.3,10.7,2309.2,1242.7,2829.6,72.7,346.2,2394.1,2843.7,174.8,70.2
0.131299,349.5,9.8,2314.4,1316.1,2827.9,63.5,345.6,2389.8,2850.4,174.4,70.2
0.133299,348.8,9.2,2331.0,1419.1,2828.7,59.2,345.1,2385.8,2856.8,174,70.2
0.135299,348.3,8.9,2358.3,1513.2,2833.4,59.3,344.6,2382.2,2863,173.5,70.2
0.137299,347.9,9.0,2374.4,1517.3,2841.8,65.5,344.2,2378.7,2868.8,173,70.2
0.139299,347.4,9.6,2367.7,1427.3,2853.5,79.4,343.9,2375.3,2874.1,172.4,70.2
0.141299,347.3,10.3,2359.3,1349.2,2865.9,100.6,343.6,2371.9,2879,171.7,70.2
0.143299,347.3,10.8,2366.3,1358.9,2876.5,125.0,343.4,2368.3,2883.4,171,70.1
0.145299,347.1,10.9,2391.5,1481.7,2885.2,148.0,343.3,2364.5,2887.2,170.1,70.1
0.147299,346.6,10.7,2432.3,1708.0,2890.3,162.1,343.2,2360.5,2890.5,169.2,70.1
0.149299,345.9,10.2,2487.1,1940.0,2887.5,166.3,343.1,2356,2893.3,168.1,70.2
0.151299,345.1,9.3,2548.2,1978.5,2877.3,164.8,343.1,2351.1,2895.6,166.9,70.2
0.153299,344.4,8.3,2553.3,1699.1,2872.7,161.1,343.1,2345.8,2897.5,165.6,70.2
0.155299,343.6,7.4,2485.3,1302.1,2884.0,152.6,343.1,2340,2898.9,164.2,70.3
0.157299,342.7,6.9,2402.8,1018.1,2902.4,134.7,343.1,2333.6,2900,162.6,70.3
0.159299,341.7,6.8,2334.4,876.1,2914.9,118.3,343,2326.7,2900.8,160.9,70.3
0.161299,340.6,7.2,2265.7,824.1,2919.7,110.6,343,2319.3,2901.4,159,70.3
0.163299,339.6,7.9,2193.2,818.5,2918.5,114.3,342.9,2311.4,2901.8,156.9,70.3
0.165299,338.9,8.6,2136.0,826.3,2915.8,129.1,342.7,2303.1,2902.2,154.7,70.2
0.167299,337.7,9.0,2114.0,837.0,2918.8,147.4,342.5,2294.4,2902.6,152.3,70.2
0.169299,336.0,8.7,2131.4,838.1,2928.4,144.4,342.3,2285.4,2903,149.8,70.1
0.171299,334.1,8.2,2171.2,839.5,2931.6,122.8,342,2276.1,2903.7,147.1,69.9
0.173299,332.3,8.1,2207.7,867.4,2925.5,107.3,341.6,2266.6,2904.6,144.2,69.6
0.175299,331.0,8.6,2228.8,940.7,2916.8,103.8,341.1,2257,2905.8,141.3,69.3
0.177299,330.3,10.0,2252.5,1073.3,2910.2,111.9,340.6,2247.4,2907.4,138.2,68.8
0.179299,330.2,12.3,2313.3,1246.4,2908.8,133.2,340,2237.9,2909.4,135,68.2
0.181299,330.0,15.6,2396.2,1370.9,2911.0,161.3,339.3,2228.5,2911.9,131.7,67.4
0.183299,328.7,20.1,2401.3,1372.3,2915.1,172.5,338.5,2219.4,2914.9,128.3,66.5
0.185299,327.2,25.6,2317.9,1268.5,2921.0,150.4,337.7,2210.5,2918.4,124.9,65.6
0.187299,328.2,30.5,2233.2,1149.7,2926.3,116.3,336.7,2202,2922.5,0,64.6
0.189299,333.5,32.0,2181.9,1056.9,2930.5,86.7,335.8,2194,2927.1,118,63.8
0.191299,338.6,29.0,2180.7,1020.4,2933.2,69.8,334.7,2186.4,2932.2,114.6,63.1
0.193299,339.1,24.9,2200.5,1027.8,2934.5,60.6,333.6,2179.3,2937.8,111.2,62.6
0.195299,336.6,22.4,2199.8,1013.4,2935.7,53.3,332.5,2172.8,2943.9,107.9,62.1
0.197299,334.2,22.2,2171.0,916.7,2938.0,47.4,331.3,2166.8,2950.3,104.6,61.5
0.199299,334.1,27.4,2123.8,726.3,2942.7,45.6,330.1,2161.4,2957.1,101.4,60.6
0.201299,339.4,45.8,2079.0,556.7,2950.4,54.0,328.9,2156.6,2964.1,98.4,59.6
0.203299,350.1,80.1,2054.6,481.3,2959.4,70.7,327.7,2152.4,2971.3,95.5,58.4
0.205299,355.9,105.9,2046.1,452.0,2964.4,78.5,326.5,2148.6,2978.6,92.7,57.2
0.207299,353.1,106.8,2048.5,439.6,2964.3,75.2,325.3,2145.5,2985.9,90,56.3
0.209299,349.5,101.0,2061.4,437.1,2962.5,70.9,324.2,2142.7,2993,87.5,55.6
0.211299,351.0,104.6,2089.7,448.5,2962.9,73.1,323.1,2140.5,2999.9,85.2,55
0.213299,360.7,130.1,2130.0,456.2,2969.2,90.2,322.1,2138.6,3006.6,83,54.2
0.215299,378.8,210.4,2171.9,450.1,2993.8,163.9,321.1,2137.1,3012.8,80.9,53.3
0.217299,395.1,426.9,2197.7,426.8,3034.4,258.3,320.3,2135.9,3018.6,79.1,52.4
0.219299,358.7,879.4,2195.2,452.8,3054.0,312.2,319.5,2135,3023.7,77.4,51.4
0.221299,125.2,1519.5,2175.4,507.1,3059.6,351.1,318.9,2134.3,3028.2,75.8,50.6
0.223299,125.7,1727.3,2158.9,521.5,3056.5,362.9,318.3,2133.7,3032,74.3,49.9
0.225299,283.5,1469.5,2152.3,502.2,3048.8,357.6,317.9,2133.4,3035,73,49.6
0.227299,333.9,1117.7,2156.7,478.0,3047.9,343.8,317.5,2133.1,3037.2,71.9,49.4
0.229299,363.3,814.9,2164.1,446.5,3055.0,309.9,317.4,2133,3038.5,70.8,49.4
0.231299,377.4,569.2,2142.5,387.7,3048.7,252.3,317.3,2132.9,3039,69.9,49.5
