time,f1,b1,f2,b2,f3,b3,f1p,f2p,f3p,f0,intensity
0.025234,379.0,771.5,1680.6,1412.9,2544.8,588.4,405.4,1594.7,2536.5,187.2,61.6
0.027234,395.2,550.2,1584.9,814.9,2532.8,342.4,409,1607.9,2538.8,186.6,63.5
0.029234,409.7,397.2,1584.6,519.7,2515.4,228.3,414.9,1629.5,2542.7,185.9,64.9
0.031234,423.1,325.5,1616.4,381.0,2511.3,190.3,422.7,1658.8,2548.2,185.2,66.1
0.033234,437.7,311.5,1662.5,318.5,2523.3,191.7,432,1695.1,2555.2,184.4,67
0.035234,454.0,340.6,1715.5,301.8,2549.8,211.2,442.4,1737.3,2563.8,183.5,67.7
0.037234,471.4,393.6,1780.4,310.9,2583.5,231.6,453.3,1784.2,2573.8,182.7,68.2
0.039234,487.0,422.3,1858.0,309.2,2614.4,241.3,464.3,1834.7,2585.2,181.7,68.6
0.041234,496.6,391.9,1933.0,266.1,2641.1,232.1,474.8,1887.5,2597.9,180.8,68.9
0.043234,498.0,326.0,1989.4,197.3,2663.3,200.9,484.5,1941.2,2611.8,179.8,69.2
0.045234,494.3,263.8,2026.7,138.4,2678.0,161.0,492.9,1994.7,2626.6,178.7,69.4
0.047234,490.5,222.9,2052.9,106.3,2682.2,131.4,500,2046.8,2642.1,177.7,69.5
0.049234,490.2,199.2,2078.0,99.7,2674.8,120.7,505.5,2096.6,2658.1,176.6,69.7
0.051234,493.1,179.2,2111.8,112.0,2657.9,126.6,509.4,2143,2674.2,175.4,69.9
0.053234,497.0,155.6,2159.5,132.3,2642.9,142.4,511.8,2185.6,2690.3,174.3,70
0.055234,500.9,133.8,2216.6,139.9,2649.2,159.3,513,2223.8,2706,173.2,70.1
0.057234,504.6,120.4,2264.6,124.4,2681.3,161.2,513.1,2257.4,2721,172,70.1
0.059234,507.9,119.8,2294.4,103.1,2719.8,145.6,512.6,2286.3,2735.3,170.9,70.1
0.061234,511.4,135.5,2313.8,85.8,2750.9,127.3,511.7,2310.5,2748.5,169.7,70
0.063234,515.0,170.4,2328.7,73.2,2770.8,114.7,510.8,2330.3,2760.6,168.6,69.9
0.065234,517.7,218.3,2341.2,65.6,2780.5,110.7,510.2,2346.1,2771.6,167.5,69.7
0.067234,519.8,255.4,2351.4,62.7,2783.6,114.4,510.2,2358.4,2781.5,166.5,69.6
0.069234,523.0,257.6,2359.6,63.8,2783.6,123.9,510.9,2367.7,2790.6,165.4,69.4
0.071234,525.6,234.7,2366.3,67.5,2784.6,137.4,512.5,2374.6,2799,164.4,69.3
0.073234,524.7,212.8,2373.1,71.1,2791.3,155.8,515,2379.6,2806.9,163.5,69.2
0.075234,521.1,202.3,2381.3,72.8,2807.4,182.0,518.3,2383.3,2814.7,162.6,69.1
0.077234,518.0,196.8,2389.9,71.3,2830.7,211.3,522.1,2386.2,2822.7,0,69
0.079234,518.9,185.4,2396.4,66.7,2851.7,230.7,526.5,2388.6,2831.3,0,68.9
0.081234,524.1,169.9,2400.3,62.8,2865.6,239.4,530.9,2390.9,2840.7,0,68.8
0.083234,530.8,160.1,2401.9,63.1,2875.4,244.9,535.3,2393.2,2851.1,0,68.7
0.085234,535.6,156.5,2402.2,64.6,2884.8,246.9,539.4,2395.8,2862.7,0,68.6
0.087234,537.7,153.2,2403.4,60.2,2894.6,245.6,542.9,2398.4,2875.5,0,68.5
0.089234,539.5,156.0,2406.5,51.2,2905.1,249.9,545.7,2401.1,2889.4,0,68.5
0.091234,543.2,181.3,2410.0,43.2,2916.7,262.0,547.8,2403.7,2904.4,0,68.5
0.093234,548.2,227.3,2411.5,37.3,2925.5,269.9,549.1,2406,2919.9,0,68.4
0.095234,551.8,260.1,2411.2,31.6,2927.5,269.9,550,2407.6,2935.7,0,68.2
0.097234,554.0,260.5,2410.8,25.7,2924.6,267.1,550.4,2408.4,2951.3,0,67.9
0.099234,555.8,240.4,2410.7,20.6,2922.2,265.8,550.9,2407.9,2966,0,67.4
0.101234,556.8,217.8,2409.1,18.5,2931.3,272.6,551.8,2406,2979.3,0,66.9
0.103234,558.2,198.9,2400.2,23.1,2959.1,281.9,553.4,2402.4,2990.6,0,66.3
0.105234,560.9,165.7,2378.4,32.4,2985.4,270.1,556.2,2397,2999.3,0,65.9
0.107234,564.9,125.6,2356.6,34.4,3004.1,246.6,560.6,2389.7,3004.9,0,65.6
0.109234,570.0,92.8,2348.1,29.2,3016.9,231.9,567,2380.4,3007,0,65.3
0.111234,574.6,68.2,2348.8,23.2,3022.8,234.8,575.5,2369.3,3005.5,0,65
0.113234,577.8,53.5,2352.2,20.7,3017.3,274.0,586.3,2356.5,3000.2,0,64.4
0.115234,582.4,57.9,2352.4,28.1,2993.7,375.6,599.3,2342.2,2991.3,0,63.9
0.117234,600.3,103.4,2336.2,58.8,2972.6,442.7,614.5,2326.8,2979,0,63.5
0.119234,641.0,182.0,2302.7,86.1,2977.2,420.4,631.5,2310.7,2963.8,0,63.6
0.121234,676.2,220.9,2293.5,77.6,2983.0,418.6,649.8,2294.1,2946.4,0,64
0.123234,687.5,222.4,2296.8,66.6,2976.3,441.7,668.9,2277.7,2927.3,0,64.6
0.125234,690.1,219.1,2300.5,62.2,2958.4,475.7,688.2,2261.8,2907.6,0,65.1
0.127234,693.3,224.5,2302.0,65.9,2924.4,520.6,706.9,2246.9,2888.1,0,65.2
0.129234,700.8,246.9,2298.8,83.1,2863.8,576.1,724.3,2233.4,2869.7,0,65
0.131234,713.6,292.6,2285.0,127.4,2778.4,607.4,739.7,2221.8,2853.3,0,64.4
0.133234,731.5,361.5,2245.2,207.5,2728.4,556.5,752.4,2212.4,2839.6,0,63.5
0.135234,755.3,442.0,2176.0,273.0,2776.6,462.9,761.9,2205.4,2829.3,0,62.3
0.137234,783.8,496.8,2118.8,295.9,2853.7,377.8,767.8,2201.2,2822.9,0,60.9
0.139234,812.7,512.4,2098.1,300.2,2891.2,340.5,769.8,2199.8,2820.7,0,59.5
