time,f1,b1,f2,b2,f3,b3,f1p,f2p,f3p,f0,intensity
0.025358,651.1,194.0,2248.9,127.9,2781.5,483.5,611,2383.3,3099.7,0,58.7
0.027358,638.2,181.2,2260.7,114.6,2890.1,459.2,608.9,2385,3099.3,0,58.5
0.029358,623.8,158.7,2277.1,118.3,2974.9,410.2,605.5,2387.9,3098.5,0,58.4
0.031358,614.8,143.2,2302.8,143.4,3019.6,408.5,600.8,2391.8,3097.4,0,58.3
0.033358,613.3,147.1,2339.7,182.0,3056.3,460.1,594.8,2396.8,3096,0,58.3
0.035358,615.2,173.8,2391.4,218.2,3115.4,524.7,587.7,2402.8,3094.4,0,58.3
0.037358,614.3,220.9,2449.6,223.3,3188.9,508.0,579.4,2409.6,3092.4,0,58.3
0.039358,603.5,278.2,2490.9,199.0,3177.2,2817.3,570.1,2417.3,3090,0,58.4
0.041358,579.3,332.7,2513.5,175.8,3140.9,3258.1,559.9,2425.6,3087.4,0,58.5
0.043358,546.8,369.1,2525.8,163.7,3174.2,467.4,548.9,2434.6,3084.5,0,58.6
0.045358,519.7,379.7,2531.9,155.1,3132.4,509.7,537.2,2444,3081.3,0,58.7
0.047358,504.4,372.0,2533.0,142.9,3103.3,504.7,525,2453.8,3077.8,0,58.9
0.049358,493.6,350.8,2528.4,133.9,3097.2,466.8,512.3,2463.8,3073.9,0,59.1
0.051358,478.5,318.5,2516.5,137.6,3108.8,438.3,499.3,2473.9,3069.9,82,59.3
0.053358,458.2,287.0,2501.7,145.2,3134.0,431.6,486.2,2483.9,3065.5,82.2,59.5
0.055358,437.5,271.6,2501.1,132.5,3162.6,431.7,473,2493.8,3061,82.4,59.7
0.057358,419.8,272.0,2515.1,106.2,3181.8,414.1,460,2503.5,3056.2,82.5,59.9
0.059358,405.2,275.3,2529.3,85.4,3185.3,380.6,447.1,2512.8,3051.2,82.7,59.9
0.061358,392.6,267.6,2538.5,75.9,3173.1,355.1,434.6,2521.6,3046,82.9,60
0.063358,383.0,241.1,2541.4,78.7,3146.5,355.4,422.5,2529.8,3040.8,83.1,60
0.065358,377.7,206.3,2539.1,95.2,3106.0,385.3,410.9,2537.3,3035.4,83.2,60
0.067358,375.3,186.1,2539.1,117.0,3062.0,420.8,400,2544.1,3030,83.4,60
0.069358,372.6,184.3,2550.1,128.8,3028.9,444.0,389.8,2550.2,3024.6,83.6,60.2
0.071358,367.7,192.4,2568.2,127.9,3010.3,455.0,380.4,2555.3,3019.3,83.8,60.3
0.073358,361.7,199.0,2584.2,121.3,3002.5,452.7,371.8,2559.7,3014.1,84,60.4
0.075358,356.7,193.4,2593.2,118.2,2994.6,442.1,364,2563.1,3009,84.1,60.4
0.077358,353.5,174.3,2592.8,124.5,2978.3,434.7,357.2,2565.7,3004.2,84.3,60.5
0.079358,352.2,156.3,2583.4,135.6,2959.7,435.6,351.2,2567.4,2999.6,84.5,60.4
0.081358,352.5,156.3,2571.1,140.8,2953.1,454.5,346.2,2568.2,2995.4,84.7,60.3
0.083358,354.4,182.3,2558.8,143.5,2961.5,484.4,342,2568.3,2991.6,84.8,60.2
0.085358,356.8,234.6,2542.8,155.9,2972.1,503.0,338.7,2567.6,2988.2,85,60.1
0.087358,357.2,307.1,2521.6,189.7,2964.2,511.8,336.2,2566.3,2985.4,85.1,59.9
0.089358,353.9,383.1,2496.5,258.8,2923.6,510.3,334.5,2564.4,2983.2,85.2,59.8
0.091358,349.7,434.7,2469.1,364.9,2860.9,465.3,333.5,2562,2981.6,85.4,59.7
0.093358,349.0,440.8,2447.3,458.0,2814.1,389.8,333.1,2559.1,2980.7,85.5,59.6
0.095358,352.4,398.2,2459.5,481.1,2791.4,347.5,333.3,2556,2980.5,85.6,59.6
0.097358,356.4,321.9,2515.0,410.2,2792.8,372.5,334,2552.7,2981.1,85.7,59.5
0.099358,358.1,254.5,2556.5,268.9,2859.3,443.0,335,2549.3,2982.5,85.8,59.5
0.101358,359.2,210.0,2566.2,178.8,2970.4,419.0,336.4,2546,2984.7,85.9,59.4
0.103358,360.4,189.5,2563.4,149.3,3045.5,344.0,337.9,2542.8,2987.8,86,59.3
0.105358,361.3,182.2,2556.9,148.9,3081.1,297.8,339.6,2539.8,2991.7,86.1,59.2
0.107358,362.2,180.5,2558.8,157.6,3094.3,297.2,341.2,2537.2,2996.5,86.2,59
0.109358,363.9,183.6,2574.8,162.1,3095.2,336.5,342.9,2535.1,3002.1,86.2,58.9
0.111358,364.5,192.3,2594.2,156.9,3098.9,378.7,344.4,2533.5,3008.5,86.3,58.9
0.113358,361.7,205.7,2605.0,148.8,3116.0,380.5,345.6,2532.5,3015.8,86.4,58.8
0.115358,355.6,220.2,2609.1,147.5,3129.1,368.5,346.6,2532.2,3023.7,86.5,58.7
0.117358,348.8,233.6,2611.7,155.1,3128.3,371.0,347.2,2532.7,3032.4,86.6,58.6
0.119358,343.8,246.7,2614.2,174.5,3110.1,384.4,347.5,2534,3041.7,86.6,58.5
0.121358,341.4,256.5,2611.2,211.5,3066.3,386.8,347.3,2536.1,3051.6,86.7,58.4
0.123358,340.2,257.0,2584.7,258.5,3010.9,338.1,346.6,2539,3062,86.8,58.2
0.125358,338.7,252.0,2528.2,266.5,2987.7,263.0,345.4,2542.8,3072.8,86.9,58
0.127358,335.5,259.4,2474.7,233.9,3002.0,223.0,343.7,2547.4,3083.9,87,57.9
0.129358,328.5,292.6,2437.5,208.8,3037.7,220.0,341.6,2552.9,3095.2,87.1,57.9
0.131358,319.3,336.1,2415.9,203.2,3077.8,237.2,339,2559.1,3106.7,87.2,57.9
0.133358,313.0,364.5,2409.3,206.3,3112.9,257.2,335.9,2566.1,3118.1,87.3,57.9
0.135358,312.9,370.6,2428.0,215.1,3126.5,277.7,332.3,2573.7,3129.5,87.4,57.9
0.137358,316.7,361.4,2482.9,222.5,3114.3,304.8,328.4,2581.9,3140.6,87.5,57.9
0.139358,320.7,332.0,2554.4,203.1,3105.5,328.8,324.2,2590.6,3151.4,87.5,57.9
0.141358,319.7,284.8,2610.2,162.6,3117.7,336.2,319.7,2599.7,3161.8,87.6,57.9
0.143358,311.8,236.6,2645.2,128.4,3142.1,334.3,315,2609.2,3171.7,87.7,58.1
0.145358,300.6,210.8,2668.8,107.8,3178.5,343.0,310.1,2618.8,3180.9,87.8,58.2
0.147358,288.9,225.1,2689.3,91.5,3237.8,358.5,305.2,2628.6,3189.3,87.9,58.4
0.149358,276.7,284.5,2704.6,74.2,3298.8,345.0,300.2,2638.3,3197,87.9,58.5
0.151358,259.0,376.4,2712.9,62.8,3331.8,322.1,295.4,2647.9,3203.7,88,58.5
0.153358,229.6,485.3,2716.2,61.8,3341.5,325.6,290.7,2657.3,3209.5,88,58.5
0.155358,203.6,559.5,2716.3,72.8,3334.4,366.6,286.3,2666.3,3214.2,88,58.5
0.157358,224.5,530.6,2714.7,100.4,3304.8,447.9,282.1,2674.9,3217.8,88,58.4
0.159358,268.0,422.1,2715.5,149.7,3238.9,557.6,278.3,2683,3220.3,88,58.3
0.161358,294.7,324.5,2725.5,197.6,3148.3,649.8,274.9,2690.4,3221.7,88,58.3
0.163358,306.8,268.4,2740.2,182.1,3108.2,703.3,272,2697.2,3221.9,88,58.3
0.165358,309.5,244.6,2745.8,128.5,3148.0,690.8,269.6,2703.2,3221,87.9,58.2
0.167358,304.5,246.1,2747.7,92.0,3202.3,612.5,267.7,2708.4,3218.9,87.8,58.1
0.169358,294.8,272.2,2748.4,78.3,3232.8,552.3,266.5,2712.7,3215.7,87.7,57.9
0.171358,287.2,308.4,2747.6,80.9,3243.7,543.7,265.8,2716.1,3211.5,87.6,57.7
0.173358,288.3,333.7,2745.8,97.9,3239.6,568.4,265.7,2718.7,3206.2,87.5,57.4
0.175358,297.1,339.1,2743.9,135.2,3212.6,603.4,266.2,2720.4,3200.1,87.3,57.2
0.177358,304.2,333.4,2741.1,209.8,3148.7,625.2,267.3,2721.1,3193,87.1,57
0.179358,302.2,327.0,2726.4,323.3,3071.3,568.8,269,2721.1,3185.2,86.9,56.8
0.181358,294.6,324.5,2692.2,373.1,3058.9,474.2,271.1,2720.2,3176.8,86.7,56.7
0.183358,290.2,316.6,2668.3,341.8,3075.4,407.4,273.8,2718.5,3167.8,86.5,56.6
0.185358,292.8,291.3,2649.3,304.5,3076.1,353.2,276.8,2716.1,3158.4,86.3,56.4
0.187358,298.5,261.6,2638.4,272.8,3069.3,327.3,280.2,2713.2,3148.7,86,56.1
0.189358,303.6,245.1,2646.3,242.8,3072.1,344.5,283.9,2709.6,3138.8,85.8,55.7
0.191358,305.5,253.5,2669.6,210.6,3102.7,399.0,287.9,2705.6,3128.8,85.5,55.4
0.193358,303.7,276.8,2680.2,188.8,3148.1,406.3,291.9,2701.3,3118.9,85.3,55.1
0.195358,302.0,283.7,2666.3,195.0,3168.0,357.8,296.1,2696.7,3109.3,85.1,54.9
0.197358,303.4,269.9,2634.5,217.2,3178.2,308.9,300.2,2692,3099.9,85,54.7
0.199358,306.9,262.4,2599.0,244.1,3195.3,276.9,304.2,2687.2,3091,84.8,54.5
0.201358,309.6,283.0,2585.4,279.6,3212.5,280.5,308.1,2682.4,3082.7,84.7,54.3
0.203358,306.2,340.9,2630.0,308.6,3215.6,355.4,311.7,2677.9,3075,84.7,54
0.205358,297.4,392.4,2701.4,272.0,3203.0,486.2,314.9,2673.5,3068.1,84.8,53.8
0.207358,295.4,375.1,2725.3,238.5,3161.8,557.5,317.8,2669.6,3062.1,84.9,53.7
0.209358,298.4,327.1,2709.9,260.8,3085.9,539.9,320.1,2666,3057,85.2,53.5
0.211358,299.6,296.1,2663.6,312.1,3017.3,469.3,322,2663,3052.8,85.5,53.5
0.213358,296.4,285.2,2611.1,333.9,2986.8,430.9,323.3,2660.6,3049.7,86,53.6
0.215358,289.7,275.8,2592.6,333.9,2971.2,460.2,324,2658.8,3047.7,86.7,53.8
0.217358,284.3,256.2,2613.0,345.8,2936.2,508.0,324.1,2657.6,3046.8,87.5,53.9
0.219358,282.8,238.8,2659.8,367.7,2873.6,533.5,323.5,2657.2,3046.9,88.5,54
0.221358,284.4,235.3,2716.6,334.2,2807.8,605.2,322.3,2657.5,3048.1,89.7,53.9
0.223358,289.0,251.0,2715.2,257.7,2841.2,728.0,320.4,2658.6,3050.4,91.1,53.8
0.225358,295.7,274.6,2694.3,214.8,2965.8,780.5,317.8,2660.4,3053.7,92.7,53.6
0.227358,296.3,271.2,2680.2,209.1,3073.0,676.5,314.7,2662.9,3057.9,94.6,53.5
0.229358,286.2,248.8,2678.2,232.0,3092.8,549.8,311,2666,3063,96.6,53.5
0.231358,276.2,246.8,2687.0,244.7,3095.3,492.7,306.7,2669.8,3069,98.9,53.6
0.233358,271.3,282.1,2703.2,224.0,3134.5,491.1,302,2674.2,3075.6,101.5,53.5
0.235358,272.4,357.4,2721.1,191.7,3202.8,494.3,296.8,2679.1,3082.8,104.2,53.2
0.237358,287.7,462.2,2740.0,168.0,3267.6,504.7,291.4,2684.4,3090.6,107.1,52.7
0.239358,337.8,514.4,2758.9,158.9,3310.6,583.2,285.6,2690,3098.7,110.3,52.1
0.241358,385.3,474.4,2776.8,161.4,3329.4,784.5,279.7,2696,3107.1,113.6,51.5
0.243358,378.4,424.5,2795.2,174.0,3300.9,1093.0,273.6,2702.1,3115.7,117,51.1
0.245358,342.4,387.6,2811.8,207.2,3193.8,1199.1,267.6,2708.2,3124.2,120.6,50.8
0.247358,313.0,372.4,2811.7,260.8,3138.1,990.5,261.6,2714.3,3132.6,0,50.7
0.249358,298.9,401.9,2783.0,292.9,3150.4,802.4,255.8,2720.3,3140.8,0,50.6
0.251358,298.1,477.3,2756.5,290.2,3165.3,752.5,250.2,2726.1,3148.6,0,50.6
0.253358,303.5,564.3,2749.7,291.9,3146.6,770.8,245,2731.6,3156,0,50.8
0.255358,292.3,611.0,2762.3,318.0,3101.6,746.6,240.2,2736.6,3162.7,139.5,51.2
0.257358,253.0,621.0,2779.6,345.2,3097.4,642.8,235.9,2741.2,3168.8,143.2,51.8
0.259358,207.4,609.1,2789.3,342.7,3128.6,543.7,232.1,2745.1,3174.1,146.9,52.4
0.261358,178.6,564.2,2781.8,353.6,3138.5,472.7,228.9,2748.5,3178.5,150.5,53
0.263358,168.4,493.7,2723.7,410.6,3115.8,395.1,226.4,2751.2,3182.1,153.9,53.6
0.265358,163.8,426.0,2604.5,404.6,3100.8,315.2,224.6,2753.1,3184.6,157.2,54
0.267358,160.5,380.5,2517.3,321.1,3100.2,293.6,223.5,2754.3,3186.2,160.3,54.3
0.269358,157.7,369.5,2487.1,273.7,3095.1,338.3,223.1,2754.7,3186.7,163.2,54.5
