time,f1,b1,f2,b2,f3,b3,f1p,f2p,f3p,f0,intensity
0.025036,546.9,217.9,2679.0,82.9,3244.6,445.5,523,2650.7,3272,0,59.5
0.027036,544.6,202.1,2679.5,87.9,3293.4,422.8,522.4,2651.1,3271.5,0,60.5
0.029036,545.1,229.5,2669.0,113.5,3289.1,428.0,521.2,2651.7,3270.8,0,61.7
0.031036,545.5,293.4,2654.8,140.8,3262.7,454.6,519.6,2652.6,3269.9,0,62.9
0.033036,538.9,351.8,2649.8,151.6,3253.4,494.3,517.6,2653.7,3268.7,0,64.2
0.035036,524.9,351.1,2650.7,146.9,3261.3,526.1,515.2,2655.1,3267.3,180.6,65.6
0.037036,510.6,297.2,2651.3,134.7,3274.4,523.8,512.4,2656.7,3265.8,181.2,66.9
0.039036,500.5,234.4,2650.6,122.7,3287.3,492.9,509.2,2658.5,3264.1,181.9,68.1
0.041036,494.5,185.1,2649.9,115.1,3298.3,461.7,505.6,2660.5,3262.4,182.5,69.2
0.043036,489.7,149.6,2649.6,113.3,3306.3,451.6,501.7,2662.7,3260.7,183.2,70.1
0.045036,483.9,125.5,2646.9,121.7,3309.0,467.1,497.5,2665.1,3259.1,183.9,70.9
0.047036,476.4,111.1,2637.3,147.9,3299.4,500.5,493,2667.6,3257.5,184.6,71.5
0.049036,467.2,102.9,2620.8,197.0,3264.1,538.6,488.3,2670.2,3256.1,185.3,72
0.051036,456.8,99.4,2621.1,250.4,3194.0,603.3,483.4,2673,3254.9,186,72.3
0.053036,446.5,101.5,2666.7,253.3,3113.1,786.5,478.3,2675.9,3253.8,186.7,72.5
0.055036,437.4,110.0,2706.3,191.3,3088.6,1144.8,473,2678.8,3253,187.4,72.6
0.057036,431.6,128.9,2713.1,146.1,3209.9,1313.6,467.7,2681.7,3252.5,188,72.6
0.059036,431.0,155.1,2709.6,124.5,3328.4,869.7,462.3,2684.6,3252.3,188.7,72.6
0.061036,436.4,177.2,2704.6,116.5,3328.2,650.8,456.9,2687.5,3252.3,189.3,72.5
0.063036,445.7,186.3,2700.2,115.5,3322.7,550.2,451.5,2690.3,3252.6,189.9,72.4
0.065036,454.7,183.6,2698.4,114.1,3304.0,524.7,446.1,2693,3253.2,190.4,72.3
0.067036,459.8,176.5,2700.4,111.6,3259.8,565.5,440.8,2695.5,3254,190.9,72.2
0.069036,460.1,170.8,2705.0,113.9,3199.8,635.9,435.7,2697.9,3255.1,191.3,72.1
0.071036,457.4,172.0,2709.8,116.6,3180.2,666.1,430.7,2700.1,3256.3,191.7,72.1
0.073036,453.4,183.1,2713.0,113.2,3216.7,628.2,425.9,2702,3257.7,192.1,72.1
0.075036,448.1,200.5,2716.1,105.0,3260.0,557.8,421.3,2703.7,3259.2,192.4,72.2
0.077036,441.2,216.0,2718.1,94.6,3281.8,490.4,417,2705.2,3260.7,192.6,72.3
0.079036,433.0,219.6,2717.1,85.5,3280.7,437.3,412.9,2706.4,3262.3,192.8,72.4
0.081036,423.2,204.4,2712.6,81.7,3266.4,406.7,409,2707.3,3263.8,192.9,72.5
0.083036,413.6,177.0,2706.7,84.4,3253.8,402.3,405.5,2708,3265.3,193,72.7
0.085036,406.3,151.9,2703.2,88.6,3257.4,421.1,402.2,2708.4,3266.6,193,72.9
0.087036,401.1,134.6,2705.1,86.2,3281.5,459.0,399.2,2708.6,3267.8,193,73
0.089036,396.6,123.3,2708.6,74.4,3312.8,501.2,396.5,2708.6,3268.8,192.9,73.2
0.091036,391.7,114.7,2708.8,60.0,3324.3,541.0,394.1,2708.5,3269.7,192.8,73.3
0.093036,386.6,105.6,2706.2,50.5,3304.0,593.9,392,2708.2,3270.3,192.7,73.5
0.095036,382.4,96.7,2703.2,45.9,3269.6,634.2,390.1,2707.9,3270.7,192.5,73.6
0.097036,380.0,91.2,2701.0,43.5,3260.5,608.3,388.4,2707.5,3271,192.3,73.8
0.099036,379.9,90.8,2700.0,42.4,3287.9,514.3,387,2707.2,3271,192.1,73.9
0.101036,381.8,93.9,2699.8,44.6,3317.5,413.7,385.7,2707,3270.9,191.8,74
0.103036,383.6,95.9,2699.1,52.7,3325.6,361.7,384.7,2706.9,3270.7,191.5,74.1
0.105036,383.4,93.6,2695.2,69.2,3306.0,364.9,383.7,2707,3270.4,191.2,74.2
0.107036,381.1,87.8,2684.8,96.2,3258.5,397.1,382.9,2707.4,3270.1,190.9,74.3
0.109036,378.3,80.5,2667.7,127.1,3200.5,418.5,382.2,2708.1,3269.8,190.6,74.5
0.111036,376.1,74.1,2654.8,142.2,3166.3,430.2,381.5,2709.2,3269.6,190.3,74.7
0.113036,374.6,69.6,2659.7,136.6,3171.0,464.6,380.8,2710.7,3269.6,190,74.9
0.115036,373.4,66.5,2679.1,125.6,3209.8,514.6,380.2,2712.6,3269.8,189.6,75.1
0.117036,372.2,63.7,2705.7,117.8,3266.2,552.0,379.6,2715,3270.3,189.3,75.2
0.119036,371.3,60.9,2735.4,108.6,3319.4,556.0,378.9,2717.8,3271.1,188.9,75.3
0.121036,371.1,58.2,2762.0,92.9,3350.0,526.9,378.2,2721,3272.3,188.6,75.4
0.123036,371.5,56.4,2778.9,77.7,3350.9,498.4,377.5,2724.7,3274,188.3,75.5
0.125036,371.9,56.6,2784.9,71.7,3325.2,505.4,376.7,2728.8,3276.2,187.9,75.5
0.127036,371.9,58.1,2784.1,77.2,3279.3,557.7,375.8,2733.2,3278.8,187.6,75.5
0.129036,371.5,58.7,2780.9,88.8,3231.5,622.7,374.9,2737.8,3282,187.3,75.5
0.131036,371.0,56.7,2777.4,94.8,3208.3,659.6,374,2742.6,3285.7,187,75.5
0.133036,371.4,52.2,2774.4,88.8,3210.9,680.8,373.1,2747.5,3289.9,186.7,75.5
0.135036,372.7,47.6,2772.1,75.7,3221.9,693.3,372.1,2752.3,3294.6,186.4,75.5
0.137036,374.3,45.4,2769.7,61.0,3241.2,662.4,371.2,2757,3299.7,186.1,75.5
0.139036,375.4,45.9,2767.1,48.0,3276.7,587.9,370.3,2761.4,3305.2,185.8,75.5
0.141036,375.8,47.3,2764.4,38.5,3323.6,496.5,369.5,2765.3,3310.9,185.5,75.5
0.143036,375.4,47.3,2761.9,32.0,3371.0,407.7,368.8,2768.6,3316.9,185.2,75.6
0.145036,374.7,45.3,2759.6,27.8,3409.8,334.2,368.3,2771.2,3323,184.9,75.6
0.147036,374.5,42.9,2757.8,25.4,3433.7,284.6,368,2772.9,3329.2,184.6,75.6
0.149036,375.3,41.1,2756.9,25.9,3438.8,266.0,367.9,2773.6,3335.2,184.3,75.6
0.151036,376.7,40.3,2756.2,30.9,3425.4,283.2,368.1,2773.1,3341.1,184.1,75.6
0.153036,377.9,40.3,2753.5,43.6,3395.8,337.5,368.5,2771.3,3346.7,183.8,75.6
0.155036,378.5,41.3,2745.7,66.2,3350.8,409.7,369.3,2768.2,3351.8,183.5,75.6
0.157036,378.7,42.8,2730.0,97.3,3300.8,463.4,370.5,2763.4,3356.4,183.2,75.5
0.159036,378.6,44.2,2707.5,131.0,3261.8,492.1,372,2757.2,3360.4,182.9,75.5
0.161036,378.5,44.9,2684.3,166.7,3239.6,521.9,374,2749.2,3363.7,182.6,75.5
0.163036,378.8,45.0,2670.2,205.2,3251.6,554.8,376.3,2739.6,3366.2,182.3,75.5
0.165036,380.3,45.4,2676.8,235.4,3324.8,551.5,379.1,2728.3,3367.8,182,75.4
0.167036,383.0,45.8,2703.1,245.5,3422.1,482.7,382.3,2715.4,3368.5,181.6,75.3
0.169036,386.1,45.0,2717.2,235.1,3481.9,408.2,386,2700.8,3368.3,181.3,75.2
0.171036,389.1,43.2,2700.3,215.6,3502.0,391.0,390,2684.7,3367.1,181,75.1
0.173036,392.5,42.3,2676.1,187.5,3495.1,435.0,394.4,2667.2,3364.9,180.6,74.9
0.175036,396.1,43.7,2664.2,162.2,3445.7,516.7,399.1,2648.4,3361.8,180.2,74.8
0.177036,399.7,46.7,2661.4,148.9,3352.4,559.0,404.1,2628.4,3357.8,179.8,74.7
0.179036,402.6,49.5,2661.4,149.4,3275.6,550.4,409.4,2607.5,3353,179.4,74.7
0.181036,405.4,51.2,2658.5,161.5,3231.0,540.9,414.9,2585.8,3347.4,179,74.6
0.183036,408.8,52.3,2644.3,185.2,3213.2,532.1,420.5,2563.7,3341.2,178.6,74.5
0.185036,413.3,53.7,2606.5,217.0,3214.6,503.2,426.3,2541.2,3334.4,178.1,74.4
0.187036,418.6,56.0,2544.7,234.5,3234.8,449.5,432,2518.8,3327.2,177.7,74.4
0.189036,424.5,58.7,2486.3,225.8,3272.0,395.4,437.7,2496.6,3319.7,177.2,74.3
0.191036,430.4,60.7,2450.0,213.4,3311.7,354.6,443.3,2474.9,3312.1,176.8,74.2
0.193036,436.4,61.2,2432.4,211.0,3341.8,326.8,448.6,2454,3304.5,176.3,74.1
0.195036,442.9,61.4,2425.9,211.0,3357.1,307.8,453.8,2434.1,3297.1,175.8,73.9
0.197036,449.8,62.6,2423.9,196.8,3356.6,290.9,458.5,2415.6,3290,175.3,73.7
0.199036,456.8,65.3,2421.9,171.1,3344.1,276.0,462.9,2398.6,3283.4,174.9,73.4
0.201036,463.1,69.6,2417.3,157.3,3327.4,279.7,466.9,2383.3,3277.3,174.4,73
0.203036,468.0,76.8,2405.3,170.3,3308.4,318.3,470.3,2370.1,3271.9,173.9,72.5
0.205036,471.4,88.4,2378.5,210.6,3286.2,383.8,473.2,2359,3267.4,173.5,71.9
0.207036,474.9,104.6,2335.5,257.7,3267.5,447.5,475.5,2350.2,3263.7,173,71.2
0.209036,483.5,127.8,2291.2,276.6,3252.5,496.9,477.1,2343.8,3261.1,172.6,70.5
0.211036,503.1,161.2,2266.7,262.3,3236.4,535.2,478.1,2340,3259.5,172.2,69.6
0.213036,536.7,200.4,2268.6,232.6,3225.4,568.0,478.5,2338.7,3258.9,171.8,68.9
