time,f1,b1,f2,b2,f3,b3,f1p,f2p,f3p,f0,intensity
0.025460,961.7,289.9,1583.2,329.4,2610.8,153.6,949.6,1624.9,2658.7,81,61.6
0.027460,949.8,265.6,1570.5,287.1,2615.6,126.0,947.1,1623.6,2656.1,83.1,61.7
0.029460,935.2,244.1,1559.6,249.8,2617.1,109.7,942.9,1621.7,2651.9,85.3,61.9
0.031460,927.3,238.2,1584.5,263.3,2606.2,123.2,937,1619,2646.1,87.7,62.6
0.033460,931.9,242.0,1652.6,314.7,2599.8,133.9,929.5,1615.7,2638.9,90.1,63.6
0.035460,935.4,239.7,1694.2,321.5,2606.7,116.0,920.5,1611.9,2630.6,0,64.8
0.037460,929.0,232.1,1698.9,304.9,2611.7,96.8,910.1,1607.8,2621.3,0,65.8
0.039460,914.0,221.3,1683.7,284.6,2614.9,81.5,898.3,1603.5,2611.2,0,66.6
0.041460,895.8,213.8,1657.5,269.3,2616.6,71.5,885.2,1599.1,2600.7,0,67.2
0.043460,878.7,224.6,1621.0,267.4,2614.4,70.2,870.9,1594.8,2590,0,67.6
0.045460,866.2,268.0,1580.0,276.5,2605.2,79.4,855.6,1590.8,2579.5,0,67.8
0.047460,853.8,319.6,1547.9,274.0,2593.8,87.0,839.3,1587,2569.3,0,67.9
0.049460,836.6,335.0,1532.3,258.3,2588.3,80.8,822.3,1583.7,2559.8,0,68
0.051460,812.2,303.9,1528.1,246.4,2588.0,66.1,804.5,1580.9,2551.4,0,68.1
0.053460,781.9,248.8,1532.7,263.7,2589.1,53.1,786.2,1578.6,2544.1,0,68.3
0.055460,754.6,205.9,1555.3,342.8,2589.5,48.8,767.5,1576.8,2538.3,0,68.5
0.057460,727.7,180.1,1597.9,471.3,2588.3,53.1,748.4,1575.6,2534.2,0,68.8
0.059460,696.7,166.0,1620.1,539.9,2584.4,62.7,729.2,1574.8,2531.9,126.6,69.3
0.061460,666.9,151.8,1604.0,514.3,2576.8,74.2,709.9,1574.4,2531.5,129.1,69.8
0.063460,643.8,131.6,1579.2,466.0,2567.6,83.4,690.7,1574.1,2533.2,131.5,70.4
0.065460,624.9,109.7,1559.0,423.8,2562.1,86.0,671.7,1573.8,2536.9,133.8,70.9
0.067460,609.5,90.4,1543.4,386.0,2560.5,84.1,652.9,1573.3,2542.6,135.9,71.4
0.069460,599.1,74.3,1529.7,356.0,2556.6,83.9,634.5,1572.4,2550.4,137.9,71.8
0.071460,593.7,64.1,1518.6,354.2,2547.3,90.8,616.6,1570.8,2560.1,139.7,72.1
0.073460,590.5,61.9,1510.1,393.0,2534.0,109.4,599.2,1568.2,2571.5,141.4,72.3
0.075460,587.4,67.4,1505.1,471.2,2521.4,146.6,582.3,1564.4,2584.4,142.9,72.5
0.077460,585.0,80.1,1513.6,590.2,2522.0,217.1,566.2,1559.1,2598.8,144.3,72.5
0.079460,583.7,99.3,1550.6,749.7,2555.3,338.3,550.7,1552.1,2614.2,145.6,72.4
0.081460,580.7,118.9,1596.0,882.0,2616.7,455.1,535.9,1543.2,2630.4,146.7,72.3
0.083460,573.3,135.0,1606.2,974.9,2663.0,506.8,521.9,1532.2,2647.1,147.7,72.1
0.085460,560.7,146.9,1579.9,1065.7,2670.2,520.9,508.7,1519,2664.1,148.5,71.9
0.087460,544.1,155.3,1545.5,1166.8,2653.6,535.3,496.2,1503.5,2681,149.3,71.8
0.089460,525.1,158.6,1512.8,1242.7,2636.5,552.1,484.4,1485.7,2697.5,149.9,71.7
0.091460,502.5,155.2,1468.1,1226.2,2641.0,555.8,473.4,1465.6,2713.2,150.5,71.7
0.093460,478.5,144.9,1431.7,1140.0,2674.9,545.9,463.1,1443.5,2727.9,150.9,71.6
0.095460,457.3,131.2,1425.0,1066.0,2727.8,534.6,453.5,1419.5,2741.4,151.3,71.6
0.097460,441.9,120.8,1447.6,1046.6,2785.5,524.5,444.5,1393.8,2753.4,151.6,71.5
0.099460,429.9,117.5,1478.8,1090.2,2832.8,499.2,436.1,1366.8,2763.6,151.8,71.5
0.101460,419.4,120.0,1472.9,1177.2,2848.7,448.8,428.3,1339,2771.8,152,71.4
0.103460,409.3,125.9,1373.8,1203.0,2829.9,377.4,421,1310.8,2778.1,152.1,71.4
0.105460,398.4,129.0,1245.5,1063.8,2799.4,302.2,414.2,1282.7,2782.2,152.2,71.3
0.107460,387.2,126.3,1162.4,917.4,2773.8,242.3,407.8,1255.3,2784,152.2,71.2
0.109460,379.0,124.7,1112.4,889.7,2758.4,206.5,401.8,1229.2,2783.7,152.2,71.2
0.111460,375.0,129.2,1079.1,992.1,2751.7,190.9,396.1,1205.1,2781.2,152.1,71.1
0.113460,372.9,132.9,1067.5,1162.7,2748.3,185.3,390.6,1183.6,2776.5,152.1,71
0.115460,369.5,130.2,1088.3,1303.8,2744.9,177.8,385.5,1165.3,2769.9,152,70.9
0.117460,365.8,126.0,1125.8,1414.8,2740.7,163.8,380.5,1150.9,2761.4,151.8,70.8
0.119460,363.5,125.4,1161.2,1611.9,2738.1,151.4,375.7,1140.9,2751.3,151.7,70.7
0.121460,361.9,126.5,1210.7,1973.9,2737.7,146.3,371.1,1135.8,2739.8,151.5,70.5
0.123460,358.8,125.9,1239.2,2199.5,2735.7,144.0,366.6,1136.1,2727,151.3,70.4
0.125460,354.1,123.7,1185.3,1971.9,2729.4,138.0,362.2,1142.1,2713.4,151.2,70.2
0.127460,349.8,121.4,1143.8,1704.7,2721.1,130.2,358,1154.1,2699,151,70
0.129460,347.0,119.9,1144.1,1552.7,2710.8,131.5,353.8,1172.3,2684.3,150.8,69.8
0.131460,345.6,118.9,1189.4,1521.7,2698.1,152.4,349.8,1196.8,2669.5,150.6,69.5
0.133460,344.2,117.6,1256.7,1599.8,2684.1,194.6,346,1227.4,2654.9,150.4,69.3
0.135460,342.8,117.3,1310.4,1769.7,2672.1,245.6,342.3,1264,2640.7,150.2,69.1
0.137460,343.2,120.9,1311.0,2062.8,2663.6,288.3,338.7,1306.2,2627.3,150,68.9
0.139460,344.5,125.2,1237.9,2526.2,2654.4,320.2,335.4,1353.7,2614.7,149.9,68.8
0.141460,343.2,122.3,1165.7,3071.8,2641.6,350.2,332.3,1405.7,2603.3,149.7,68.7
0.143460,338.3,111.9,1342.4,3058.1,2629.4,384.6,329.4,1461.8,2593.2,149.6,68.5
0.145460,333.8,103.4,1526.3,2498.7,2626.5,418.2,326.9,1520.9,2584.6,149.5,68.4
0.147460,331.7,101.3,1633.4,2242.8,2630.9,459.5,324.6,1582.4,2577.5,149.4,68.3
0.149460,331.0,102.8,1725.0,2234.7,2633.5,504.1,322.8,1645.2,2572.1,149.3,68.1
0.151460,331.3,106.1,1816.6,2351.6,2623.5,531.2,321.3,1708.3,2568.4,149.3,67.9
0.153460,332.6,110.8,1998.5,2600.4,2595.7,543.4,320.3,1770.7,2566.4,149.3,67.7
0.155460,333.6,113.8,2277.9,3028.7,2549.9,533.5,319.8,1831.3,2566.1,149.3,67.4
0.157460,332.9,109.5,2097.6,3858.6,2509.7,491.1,319.7,1889.1,2567.4,149.3,67.1
0.159460,330.8,98.0,1804.0,3169.5,2480.4,455.2,320.1,1942.9,2570.3,149.4,66.7
0.161460,329.0,86.1,1827.1,2766.8,2446.1,441.8,321.1,1991.8,2574.6,149.5,66.3
0.163460,329.2,82.8,1882.3,2770.4,2398.5,436.4,322.6,2034.8,2580.3,149.6,66
0.165460,332.1,91.0,1991.3,3031.6,2352.6,439.0,324.7,2071.1,2587.2,149.8,65.6
0.167460,336.1,102.7,2136.2,2740.1,2324.6,490.2,327.3,2100.1,2595.1,150,65.2
0.169460,338.9,106.8,2149.7,1935.1,2311.2,631.8,330.5,2120.9,2603.8,150.2,64.9
0.171460,340.9,104.2,2090.5,1042.6,2395.9,1030.0,334.2,2133.3,2613.3,150.5,64.5
0.173460,341.7,99.2,1971.1,722.2,2584.6,1051.1,338.3,2136.7,2623.2,150.8,64.2
0.175460,340.5,93.9,1952.3,517.4,2711.5,1068.3,343,2131.2,2633.5,151.1,64
0.177460,337.6,88.4,1962.3,353.5,2839.6,1086.4,348.1,2116.7,2643.9,151.5,63.8
0.179460,335.2,84.7,1975.2,243.2,2958.2,1068.8,353.6,2093.3,2654.3,151.8,63.7
0.181460,336.7,90.7,1983.7,195.4,3049.6,1061.4,359.4,2061.5,2664.6,152.2,63.6
0.183460,345.1,115.7,1988.9,206.1,3101.8,1114.8,365.5,2021.6,2674.7,152.6,63.7
0.185460,359.4,154.4,1993.9,270.0,3094.2,1260.4,371.9,1974.5,2684.3,153,64
0.187460,373.0,181.9,1998.7,401.3,2982.2,1474.1,378.4,1920.9,2693.5,153.4,64.4
0.189460,380.8,183.8,1995.9,634.0,2722.7,1475.9,385,1861.7,2702.2,153.8,64.9
0.191460,383.8,170.7,1944.4,992.4,2546.7,1092.5,391.7,1798.1,2710.2,154.3,65.6
0.193460,385.2,160.0,1853.2,1337.5,2521.2,818.8,398.3,1731.2,2717.6,154.7,66.3
0.195460,388.0,160.5,1811.8,1723.0,2509.7,690.8,404.7,1662.1,2724.3,155.1,67
0.197460,393.7,169.8,1753.2,2165.3,2504.1,604.7,411,1592.3,2730.4,155.5,67.8
0.199460,401.2,181.8,1621.6,2419.7,2518.9,564.8,417.1,1522.9,2735.7,155.9,68.5
0.201460,409.3,193.0,1513.2,2246.0,2569.8,560.5,422.8,1455.4,2740.4,156.3,69.1
0.203460,419.0,205.1,1416.0,1858.7,2654.7,520.5,428,1391,2744.5,156.6,69.8
0.205460,428.7,215.9,1264.8,1421.9,2729.8,418.6,432.9,1330.9,2748,157,70.5
0.207460,433.6,214.3,1141.7,953.2,2777.5,308.4,437.2,1276.2,2750.9,157.3,71.1
0.209460,434.9,191.9,1086.1,617.8,2805.9,231.9,440.9,1228,2753.2,157.6,71.7
0.211460,440.8,162.3,1068.1,442.2,2822.2,195.6,444.1,1187.3,2755.1,157.9,72.2
0.213460,453.2,146.1,1076.6,393.4,2824.6,202.8,446.5,1154.7,2756.5,158.2,72.6
0.215460,470.3,144.6,1107.6,418.3,2810.6,248.7,448.3,1131,2757.5,158.4,72.9
0.217460,487.5,148.2,1148.1,450.2,2782.8,303.5,449.4,1116.6,2758.1,158.6,73.1
0.219460,501.7,153.3,1179.5,449.8,2746.6,323.2,449.7,1111.8,2758.3,158.8,73.1
