time,f1,b1,f2,b2,f3,b3,f1p,f2p,f3p,f0,intensity
0.025721,553.4,267.6,1687.7,283.2,2299.9,81.1,694.4,1639.7,2331.1,191.1,69
0.027721,585.4,252.5,1684.9,287.2,2305.8,73.2,695.1,1639,2331.7,190.7,70.2
0.029721,618.4,248.8,1679.6,282.1,2314.1,68.5,696.3,1637.8,2332.7,190.3,71.2
0.031721,651.3,250.6,1679.1,274.8,2323.8,62.3,697.8,1636.1,2334.1,189.9,72
0.033721,680.4,257.7,1684.7,271.8,2332.0,55.1,699.8,1633.9,2335.8,189.4,72.6
0.035721,703.2,270.7,1690.1,272.9,2338.0,50.4,702.2,1631.3,2338,189,73.2
0.037721,721.0,290.1,1687.4,273.9,2342.8,49.5,705,1628.2,2340.4,188.5,73.5
0.039721,732.9,307.5,1671.3,267.5,2346.7,52.4,708.2,1624.7,2343.2,188,73.7
0.041721,740.3,316.1,1643.7,246.6,2351.0,57.0,711.8,1620.7,2346.2,187.5,73.8
0.043721,746.1,320.4,1614.0,217.6,2358.0,59.5,715.6,1616.4,2349.5,187,73.9
0.045721,751.9,328.1,1587.2,191.5,2367.7,58.1,719.7,1611.7,2353,186.5,73.8
0.047721,756.5,338.2,1563.6,170.8,2376.5,53.7,724.1,1606.6,2356.7,186,73.8
0.049721,758.5,345.9,1546.4,157.9,2380.4,48.5,728.8,1601.2,2360.5,185.5,73.7
0.051721,759.3,349.4,1534.2,151.6,2380.3,43.7,733.6,1595.4,2364.4,185,73.7
0.053721,761.5,347.6,1526.6,150.7,2379.6,40.4,738.6,1589.4,2368.4,184.5,73.7
0.055721,766.3,339.8,1521.4,153.1,2380.6,38.8,743.7,1583.2,2372.4,184,73.7
0.057721,773.4,328.1,1518.5,156.7,2383.7,38.7,748.9,1576.7,2376.5,183.5,73.8
0.059721,781.9,317.5,1518.7,160.4,2386.6,39.7,754.1,1570,2380.4,183,73.8
0.061721,790.9,308.2,1521.1,163.5,2387.7,42.4,759.4,1563.1,2384.3,182.5,73.9
0.063721,797.9,298.7,1522.9,164.0,2386.7,46.7,764.6,1556.1,2388.1,182,73.9
0.065721,804.0,291.1,1522.8,163.5,2384.9,52.9,769.8,1549,2391.7,181.5,74
0.067721,810.2,287.6,1520.8,163.5,2384.2,60.3,774.9,1541.9,2395.1,181,74
0.069721,815.2,284.0,1516.9,162.8,2386.2,67.6,779.8,1534.7,2398.4,180.5,74
0.071721,818.5,278.0,1510.7,160.5,2392.0,74.1,784.7,1527.5,2401.4,180,74
0.073721,819.9,271.8,1503.9,157.4,2399.1,80.0,789.3,1520.3,2404.1,179.5,74
0.075721,820.2,267.1,1498.2,154.6,2404.2,84.7,793.8,1513.2,2406.6,179,74
0.077721,820.7,266.8,1495.2,154.2,2407.1,84.3,798.1,1506.2,2408.8,178.5,74
0.079721,821.5,272.4,1494.2,157.1,2411.1,77.5,802.1,1499.3,2410.8,178,73.9
0.081721,821.4,284.6,1493.0,162.4,2416.7,68.5,805.8,1492.6,2412.4,177.5,73.8
0.083721,819.4,303.0,1489.8,168.3,2422.9,61.9,809.3,1486.1,2413.7,177,73.7
0.085721,814.7,324.5,1483.6,171.4,2428.8,59.3,812.5,1479.8,2414.8,176.5,73.7
0.087721,809.4,341.8,1477.0,169.4,2432.8,59.6,815.5,1473.7,2415.6,175.9,73.6
0.089721,806.9,355.9,1473.1,165.0,2433.7,60.0,818.1,1467.9,2416.1,175.4,73.6
0.091721,806.6,367.4,1472.2,159.9,2432.0,58.0,820.5,1462.4,2416.3,174.8,73.5
0.093721,804.8,376.6,1472.3,152.2,2428.9,54.0,822.6,1457.2,2416.4,174.3,73.5
0.095721,799.5,382.9,1471.8,142.1,2424.8,50.0,824.4,1452.3,2416.2,173.7,73.5
0.097721,793.1,387.6,1470.1,132.9,2419.8,47.5,825.9,1447.8,2415.8,173.2,73.4
0.099721,788.2,392.6,1467.9,127.5,2414.0,46.0,827.1,1443.7,2415.3,172.6,73.3
0.101721,787.1,399.0,1466.2,128.5,2408.8,45.1,828.2,1439.9,2414.7,172,73.2
0.103721,789.2,410.6,1464.5,135.5,2403.6,44.6,828.9,1436.6,2414,171.4,73.1
0.105721,793.0,425.4,1460.9,144.9,2397.9,44.6,829.5,1433.6,2413.3,170.8,73
0.107721,797.9,434.3,1454.7,151.8,2391.7,46.1,829.9,1431,2412.5,170.3,73
0.109721,804.7,434.3,1447.6,154.8,2385.2,50.5,830.1,1428.8,2411.8,169.7,73
0.111721,813.1,427.3,1443.2,154.0,2380.0,57.8,830.2,1427,2411.1,169.1,73
0.113721,821.7,409.3,1443.2,146.5,2378.2,66.5,830.1,1425.7,2410.6,168.5,73
0.115721,827.1,381.5,1446.1,131.1,2382.7,72.1,829.9,1424.7,2410.2,167.8,73.1
0.117721,827.8,351.1,1447.7,110.8,2393.3,74.4,829.7,1424.1,2410,167.2,73.2
0.119721,825.0,324.8,1445.8,93.1,2405.1,75.8,829.4,1423.8,2410,166.6,73.3
0.121721,822.4,305.7,1442.5,83.9,2413.4,77.0,829.1,1424,2410.2,166,73.4
0.123721,821.7,292.5,1440.0,83.9,2418.0,74.7,828.7,1424.4,2410.8,165.4,73.5
0.125721,822.5,278.3,1439.2,89.2,2420.7,66.1,828.4,1425.2,2411.6,164.8,73.5
0.127721,823.1,253.0,1438.4,93.2,2423.0,53.1,828.1,1426.3,2412.8,164.2,73.6
0.129721,823.6,223.3,1434.5,93.7,2424.3,42.1,827.9,1427.6,2414.3,163.6,73.7
0.131721,825.3,200.3,1427.0,95.7,2424.4,35.4,827.8,1429.2,2416.2,163,73.7
0.133721,828.4,190.1,1418.8,102.1,2423.2,33.4,827.8,1431.1,2418.5,162.4,73.7
0.135721,832.5,189.6,1412.8,111.1,2422.1,35.1,827.8,1433.1,2421.2,161.8,73.7
0.137721,837.1,194.5,1409.0,120.8,2422.0,39.6,828.1,1435.2,2424.3,161.3,73.7
0.139721,841.0,199.2,1407.8,129.7,2424.5,45.3,828.4,1437.5,2427.8,160.7,73.7
0.141721,844.7,199.9,1411.0,140.5,2431.5,51.1,828.9,1439.9,2431.7,160.1,73.7
0.143721,848.0,194.0,1419.4,151.5,2442.9,56.3,829.6,1442.4,2436,159.5,73.7
0.145721,849.4,183.5,1429.7,155.9,2455.8,60.1,830.4,1444.9,2440.7,159,73.7
0.147721,849.1,173.9,1439.1,155.1,2468.4,61.9,831.4,1447.4,2445.7,158.4,73.8
0.149721,847.4,167.3,1444.9,154.4,2477.9,61.8,832.5,1449.9,2451.1,157.9,73.8
0.151721,844.3,162.5,1445.9,155.2,2484.0,61.0,833.8,1452.3,2456.8,157.3,73.8
0.153721,841.0,162.1,1443.6,158.6,2487.8,61.8,835.3,1454.6,2462.8,156.8,73.7
0.155721,839.0,169.0,1441.7,165.3,2491.6,67.8,836.9,1456.8,2469.1,156.3,73.6
0.157721,839.2,182.0,1442.3,174.0,2494.9,80.2,838.6,1458.8,2475.5,155.8,73.5
0.159721,841.4,198.6,1444.6,184.1,2496.4,94.6,840.5,1460.7,2482.2,155.3,73.4
0.161721,844.5,221.0,1448.3,198.6,2496.9,106.5,842.5,1462.3,2489,154.8,73.3
0.163721,846.9,244.3,1452.3,213.3,2497.0,112.7,844.6,1463.8,2495.9,154.4,73.2
0.165721,847.4,259.0,1455.7,218.1,2496.2,113.1,846.8,1465,2502.8,153.9,73.1
0.167721,846.0,260.6,1459.3,210.4,2495.6,110.3,849,1465.9,2509.8,153.5,73
0.169721,845.0,256.6,1463.5,199.0,2498.1,106.8,851.3,1466.6,2516.7,153.1,72.9
0.171721,846.9,253.1,1466.4,190.1,2504.4,102.4,853.6,1467,2523.6,152.8,72.8
0.173721,853.9,254.4,1467.0,188.1,2511.7,99.1,855.9,1467,2530.3,152.4,72.8
0.175721,866.2,263.1,1467.2,195.3,2517.2,100.0,858.3,1466.8,2536.9,152.1,72.7
0.177721,878.5,273.1,1467.1,205.9,2519.9,105.1,860.5,1466.3,2543.3,151.8,72.6
0.179721,886.7,274.3,1465.5,209.8,2522.8,111.4,862.8,1465.5,2549.4,151.5,72.5
0.181721,889.8,263.2,1463.0,202.8,2529.3,115.7,864.9,1464.4,2555.3,151.3,72.4
0.183721,888.7,246.8,1461.3,188.0,2538.5,115.4,867,1463.1,2560.8,151.1,72.3
0.185721,884.2,233.3,1459.9,171.9,2549.3,109.1,869,1461.4,2566,150.9,72.2
0.187721,878.6,230.0,1458.8,165.3,2561.9,100.8,870.8,1459.5,2570.9,150.7,72
0.189721,873.9,239.0,1458.7,173.6,2576.3,94.6,872.5,1457.4,2575.3,150.6,71.9
0.191721,872.6,254.5,1460.3,192.5,2587.2,92.5,874.1,1455,2579.3,150.5,71.7
0.193721,875.5,270.9,1463.7,213.5,2592.3,95.2,875.4,1452.5,2582.9,150.4,71.5
0.195721,881.6,285.6,1467.9,231.5,2591.4,104.4,876.6,1449.8,2586,150.3,71.4
0.197721,886.3,295.3,1470.1,241.7,2586.9,115.9,877.7,1447,2588.7,150.3,71.3
0.199721,885.5,299.7,1466.4,240.0,2583.5,122.0,878.5,1444,2590.9,150.3,71.2
0.201721,880.3,303.2,1456.9,231.7,2585.9,120.3,879.1,1441,2592.6,150.3,71.2
0.203721,874.0,308.7,1445.5,222.8,2593.0,114.8,879.5,1438,2593.9,150.3,71.1
0.205721,869.8,310.1,1438.8,215.5,2599.8,110.8,879.8,1434.9,2594.8,150.3,71.1
0.207721,868.1,302.5,1438.8,210.0,2604.7,112.7,879.8,1431.9,2595.2,150.3,71.2
0.209721,867.4,287.7,1442.5,205.2,2608.6,122.0,879.6,1429,2595.3,150.4,71.2
0.211721,865.8,275.8,1444.0,198.5,2611.1,131.9,879.3,1426.2,2594.9,150.4,71.3
0.213721,862.4,274.9,1439.5,190.6,2613.9,133.3,878.7,1423.6,2594.2,150.4,71.3
0.215721,857.3,286.0,1429.4,186.4,2616.9,126.0,878,1421.1,2593.1,150.5,71.2
0.217721,852.5,304.1,1417.9,187.0,2617.2,115.8,877.1,1418.9,2591.8,150.5,71.2
0.219721,851.5,323.4,1412.1,190.7,2612.2,109.7,876.1,1416.9,2590.2,150.6,71.1
0.221721,854.1,343.8,1412.2,196.0,2603.4,111.3,874.9,1415.3,2588.3,150.6,70.9
0.223721,858.9,370.2,1413.8,205.1,2593.0,121.6,873.6,1413.9,2586.2,150.7,70.8
0.225721,865.0,402.4,1413.9,219.7,2585.2,137.3,872.2,1413,2584,150.7,70.6
0.227721,871.8,443.0,1412.6,241.2,2580.1,155.7,870.7,1412.4,2581.7,150.7,70.4
0.229721,873.7,476.1,1410.3,262.1,2575.9,171.0,869.1,1412.2,2579.3,150.7,70.2
0.231721,863.4,476.1,1408.5,267.8,2571.4,174.1,867.5,1412.5,2576.8,150.7,69.9
0.233721,843.2,442.5,1407.8,253.3,2567.1,161.0,865.8,1413.2,2574.4,150.7,69.7
0.235721,823.9,406.6,1406.8,235.7,2562.2,144.0,864,1414.3,2571.9,150.7,69.5
0.237721,813.8,389.6,1407.1,232.0,2556.5,135.5,862.3,1416,2569.6,150.7,69.4
0.239721,818.8,399.9,1412.6,252.1,2552.8,142.0,860.6,1418.1,2567.3,150.7,69.2
0.241721,836.9,428.3,1423.3,296.1,2553.4,160.4,858.9,1420.7,2565.2,150.6,69.2
0.243721,857.1,454.7,1431.7,343.1,2558.2,177.1,857.2,1423.8,2563.2,150.6,69.1
0.245721,866.1,470.6,1429.4,359.3,2563.9,181.6,855.5,1427.4,2561.5,150.5,69
0.247721,859.6,478.0,1416.8,331.6,2567.6,179.0,854,1431.5,2559.9,150.4,68.9
0.249721,845.8,472.2,1406.3,283.8,2567.8,179.2,852.4,1436,2558.6,150.3,68.8
0.251721,839.5,460.6,1407.5,248.4,2563.5,189.6,851,1440.9,2557.5,150.3,68.7
0.253721,850.1,462.0,1422.7,241.5,2555.0,212.8,849.7,1446.3,2556.6,150.2,68.5
0.255721,872.4,473.3,1448.5,251.7,2541.0,247.6,848.5,1452,2556,150.1,68.3
0.257721,892.0,483.1,1471.7,263.1,2527.0,279.7,847.3,1458.1,2555.7,150,68.1
0.259721,902.7,493.7,1484.3,274.2,2525.0,293.8,846.3,1464.5,2555.7,149.9,67.8
0.261721,905.5,505.6,1487.8,290.5,2536.3,286.9,845.4,1471.2,2555.9,149.8,67.6
0.263721,901.0,513.6,1485.4,306.6,2548.4,266.2,844.6,1478.2,2556.4,149.8,67.3
0.265721,891.4,516.0,1485.8,308.4,2553.9,243.3,843.9,1485.3,2557.1,149.7,67
0.267721,880.4,512.3,1498.0,288.3,2553.9,225.0,843.3,1492.7,2558.1,149.6,66.6
0.269721,871.2,506.1,1516.6,256.4,2554.8,208.1,842.8,1500.1,2559.2,149.6,66.3
0.271721,866.9,499.4,1528.7,229.4,2563.1,190.1,842.4,1507.6,2560.6,149.5,65.9
0.273721,863.3,483.5,1530.9,209.6,2577.7,172.7,842.1,1515.1,2562.1,149.5,65.5
0.275721,855.3,450.4,1527.6,191.1,2593.4,161.6,841.9,1522.6,2563.8,149.5,65.1
0.277721,848.5,417.3,1525.8,180.3,2601.9,164.8,841.8,1530,2565.6,149.5,64.7
0.279721,848.1,400.6,1528.5,184.9,2597.3,180.0,841.8,1537.3,2567.5,149.5,64.3
0.281721,850.1,394.4,1531.0,204.0,2583.9,187.6,841.8,1544.3,2569.4,149.5,64
0.283721,849.0,387.0,1527.7,225.9,2576.2,175.1,841.9,1551.2,2571.4,149.6,63.6
0.285721,844.4,385.3,1518.3,240.9,2576.3,154.9,842,1557.7,2573.4,149.6,63.3
0.287721,839.5,400.8,1511.7,247.6,2575.8,146.1,842.2,1563.9,2575.3,149.7,62.9
0.289721,836.3,434.6,1515.0,254.6,2568.3,155.3,842.4,1569.8,2577.2,149.7,62.6
0.291721,834.7,468.1,1524.7,262.8,2557.2,176.3,842.6,1575.2,2579,149.8,62.2
0.293721,832.8,477.3,1535.4,267.2,2553.5,196.9,842.8,1580.2,2580.7,149.9,61.9
0.295721,831.4,457.7,1545.5,265.7,2567.4,209.8,843,1584.6,2582.3,150,61.5
0.297721,831.9,436.2,1556.5,262.0,2593.2,212.3,843.2,1588.6,2583.7,150.2,61.2
0.299721,835.8,441.6,1573.2,266.5,2615.4,208.5,843.3,1592,2584.9,150.3,60.8
0.301721,843.8,478.9,1601.3,284.1,2623.9,215.0,843.5,1594.8,2585.9,150.4,60.4
0.303721,850.2,529.9,1645.0,299.0,2621.3,246.9,843.6,1597,2586.7,150.5,60
0.305721,839.1,586.6,1686.0,290.4,2604.9,306.5,843.7,1598.5,2587.3,150.7,59.7
0.307721,799.9,685.5,1697.7,275.6,2562.5,368.7,843.8,1599.5,2587.7,150.8,59.6
0.309721,726.4,839.2,1675.9,260.2,2503.8,367.5,843.8,1599.8,2587.8,150.9,59.7
