time,f1,b1,f2,b2,f3,b3,f1p,f2p,f3p,f0,intensity
0.025571,738.0,126.0,1346.6,289.3,2658.6,396.7,737.2,1348.6,2555.2,0,57.6
0.027571,739.6,104.6,1347.6,260.7,2679.5,387.5,738.6,1349.7,2546.8,0,59.4
0.029571,742.0,87.7,1350.3,243.5,2701.5,413.6,740.7,1351.5,2533.3,0,61
0.031571,746.1,78.8,1359.4,240.1,2613.7,972.9,743.6,1353.8,2515.4,0,62.3
0.033571,750.9,80.9,1369.1,238.8,2379.7,688.4,747.2,1356.4,2494,0,63.4
0.035571,754.8,90.7,1372.7,224.5,2304.5,519.9,751.2,1359.1,2470.1,0,64.4
0.037571,757.8,97.2,1373.0,205.4,2291.3,435.2,755.5,1361.5,2444.9,0,65.2
0.039571,760.4,96.3,1371.4,188.6,2296.6,387.5,760.1,1363.5,2419.5,0,66
0.041571,763.2,96.4,1366.3,180.0,2304.4,360.7,764.6,1364.9,2395.1,0,66.6
0.043571,765.9,106.2,1358.2,184.3,2310.3,350.0,769,1365.3,2372.9,0,67.1
0.045571,768.0,119.4,1350.7,192.8,2315.8,345.1,773,1364.6,2353.5,0,67.7
0.047571,769.4,117.6,1346.9,192.1,2324.5,336.1,776.6,1362.7,2337.8,0,68.1
0.049571,772.1,98.5,1345.2,184.9,2339.9,322.0,779.7,1359.5,2326.2,132.9,68.6
0.051571,777.0,75.3,1341.9,180.8,2361.7,302.6,782,1355,2318.8,132.9,69.1
0.053571,781.6,58.2,1335.6,182.0,2381.8,277.5,783.7,1349.4,2315.5,132.8,69.6
0.055571,783.9,47.7,1328.7,179.9,2390.3,256.2,784.6,1342.8,2316,132.7,70
0.057571,784.3,40.9,1324.0,172.4,2388.2,247.2,784.8,1335.3,2319.6,132.6,70.4
0.059571,784.2,37.4,1321.9,170.9,2381.2,248.6,784.3,1327.3,2325.7,132.6,70.7
0.061571,783.8,36.1,1321.0,180.2,2374.3,251.3,783.2,1319,2333.2,132.5,70.9
0.063571,783.3,34.5,1319.3,193.8,2369.7,256.5,781.5,1310.6,2341.2,132.4,71
0.065571,783.1,32.6,1315.7,208.8,2366.0,280.9,779.4,1302.6,2348.7,132.3,71.1
0.067571,782.9,32.2,1311.1,226.6,2360.2,335.1,776.9,1295.1,2354.8,132.2,71.2
0.069571,781.4,32.8,1304.0,235.1,2345.5,392.9,774.1,1288.4,2358.8,132.1,71.1
0.071571,778.3,32.0,1294.3,221.0,2322.7,402.7,771.3,1282.8,2359.9,132,71
0.073571,774.6,29.7,1287.8,191.8,2305.7,359.6,768.4,1278.3,2357.9,131.9,70.9
0.075571,770.6,28.3,1286.9,164.2,2300.1,301.1,765.6,1275,2352.6,131.8,70.7
0.077571,766.6,28.9,1288.5,146.7,2301.9,256.6,763,1272.9,2344.1,131.7,70.4
0.079571,763.0,31.6,1289.6,139.6,2305.7,234.8,760.6,1271.9,2332.9,131.7,70.1
0.081571,759.2,37.9,1289.4,145.1,2309.8,234.9,758.5,1271.9,2319.6,0,69.6
0.083571,754.5,50.6,1287.5,163.5,2313.7,244.9,756.7,1272.7,2305,0,69.1
0.085571,749.4,67.2,1281.8,183.3,2314.5,249.9,755.2,1274,2290.1,0,68.6
0.087571,745.8,81.2,1270.2,194.9,2308.0,252.7,754,1275.6,2276,0,68.1
0.089571,743.6,92.0,1252.2,200.9,2289.5,262.9,753,1277.1,2263.8,0,67.7
0.091571,741.2,98.4,1233.2,198.4,2260.0,274.4,752.3,1278.2,2254.5,0,67.4
0.093571,739.3,92.2,1224.2,182.7,2237.3,274.1,751.8,1278.7,2249.1,0,67.3
0.095571,740.6,77.2,1226.3,163.9,2230.4,271.5,751.3,1278.4,2248.3,0,67.1
0.097571,745.3,63.5,1236.4,152.2,2233.8,285.9,751,1277,2252.6,0,66.9
0.099571,751.4,57.8,1255.9,154.1,2246.9,334.9,750.6,1274.5,2262.2,0,66.5
0.101571,755.6,62.2,1280.1,162.6,2273.6,399.5,750.3,1270.8,2277.1,0,66
0.103571,756.5,71.8,1294.5,160.7,2305.4,423.6,749.8,1265.9,2296.9,0,65.4
0.105571,755.9,79.4,1295.3,150.0,2328.5,417.1,749.3,1260,2320.9,0,64.6
0.107571,755.6,85.0,1286.6,144.5,2348.8,428.7,748.6,1253.1,2348.2,0,63.9
0.109571,756.9,97.3,1269.4,158.5,2389.9,477.9,747.9,1245.6,2377.7,0,63.2
0.111571,759.3,114.4,1246.7,183.9,2448.9,500.5,747,1237.7,2407.9,0,62.6
0.113571,760.0,114.6,1231.1,186.4,2474.0,477.3,746,1229.6,2437.6,0,62.1
0.115571,759.9,96.9,1227.7,167.7,2474.3,457.0,745,1221.8,2465.3,0,61.7
0.117571,759.4,80.3,1230.5,150.8,2475.4,454.4,744,1214.5,2489.7,0,61.1
0.119571,756.5,79.2,1236.5,150.4,2494.1,476.7,742.9,1207.9,2509.6,0,60.4
0.121571,749.3,101.8,1243.9,163.9,2531.4,501.1,741.9,1202.5,2524,0,59.6
0.123571,735.7,151.1,1246.5,170.5,2559.6,505.3,741,1198.2,2532.3,0,58.5
0.125571,713.1,225.8,1241.2,163.5,2562.4,507.7,740.2,1195.3,2534.1,0,57.4
0.127571,678.7,320.5,1229.6,160.2,2533.1,504.6,739.5,1193.8,2529.2,0,56.3
0.129571,649.6,402.9,1208.9,196.9,2476.3,464.8,739,1193.7,2518.2,0,55.4
0.131571,676.2,446.4,1159.0,341.7,2433.1,425.8,738.6,1194.8,2501.5,0,54.7
0.133571,795.1,412.9,1027.5,744.5,2412.1,433.3,738.3,1197.1,2480.1,0,54.2
0.135571,814.1,229.4,1004.3,1354.8,2400.9,479.0,738.2,1200.3,2455.3,0,53.7
0.137571,800.8,183.3,1075.0,1450.8,2404.6,563.0,738.1,1204.1,2428.5,0,53.2
0.139571,781.3,192.1,1190.2,1032.2,2438.7,694.8,738.2,1208.2,2401,0,52.7
0.141571,751.5,234.9,1246.5,607.1,2448.8,802.3,738.3,1212.4,2374.6,0,52.2
0.143571,718.3,287.3,1256.3,394.5,2370.0,773.0,738.5,1216.2,2350.6,0,51.8
0.145571,701.2,296.9,1261.5,305.4,2308.4,692.8,738.6,1219.6,2330.3,0,51.6
0.147571,709.0,274.3,1271.3,277.0,2293.8,667.1,738.7,1222.2,2315,0,51.4
0.149571,729.7,237.7,1286.2,275.1,2311.4,682.1,738.8,1223.8,2305.5,0,51.2
0.151571,753.9,191.6,1308.0,288.3,2361.9,716.3,738.8,1224.3,2302.2,0,50.8
