time,f1,b1,f2,b2,f3,b3,f1p,f2p,f3p,f0,intensity
0.025744,378.4,102.9,2070.4,123.6,2719.5,304.0,408.3,2055.4,2690.8,195.7,72.7
0.027744,387.1,79.4,2080.5,121.9,2672.8,337.4,408.4,2057,2691,195.7,73.2
0.029744,392.5,66.0,2087.8,119.0,2645.5,307.1,408.5,2059.5,2691.2,195.7,73.7
0.031744,396.4,62.6,2096.8,119.7,2647.9,278.1,408.7,2063.1,2691.6,195.7,74.1
0.033744,399.8,64.0,2104.5,126.7,2653.8,257.5,408.9,2067.6,2692.2,195.7,74.3
0.035744,402.8,67.1,2109.0,139.1,2656.6,243.0,409.1,2073,2692.9,195.7,74.4
0.037744,405.7,71.3,2110.2,157.3,2658.0,230.6,409.3,2079.3,2693.8,195.7,74.4
0.039744,408.6,75.7,2107.1,179.2,2659.9,221.3,409.6,2086.3,2694.9,195.7,74.2
0.041744,411.7,80.5,2100.9,204.0,2665.6,216.9,409.8,2094,2696.3,195.6,74
0.043744,415.4,86.9,2093.1,230.6,2678.7,219.7,410,2102.3,2698,195.6,73.7
0.045744,419.3,97.0,2087.5,254.3,2701.5,228.2,410.2,2111.2,2699.9,195.5,73.4
0.047744,423.2,114.7,2088.1,275.5,2735.2,235.0,410.3,2120.5,2702.3,195.5,73.1
0.049744,426.8,140.1,2094.7,297.4,2769.5,225.7,410.3,2130.2,2704.9,195.4,72.8
0.051744,429.3,166.4,2103.0,322.9,2787.1,205.1,410.3,2140.1,2708,195.4,72.6
0.053744,430.5,190.3,2111.4,356.7,2790.4,183.4,410.2,2150.2,2711.5,195.3,72.4
0.055744,430.3,208.5,2119.0,396.8,2786.5,164.8,410,2160.4,2715.4,195.2,72.3
0.057744,428.8,223.5,2128.4,447.8,2780.5,149.3,409.7,2170.5,2719.8,195.1,72.2
0.059744,426.0,237.0,2144.2,519.3,2773.8,138.7,409.3,2180.6,2724.6,195,72.1
0.061744,422.5,245.9,2167.6,609.6,2766.7,134.3,408.7,2190.5,2729.9,194.9,72.1
0.063744,418.9,247.1,2194.8,710.8,2759.4,133.7,408,2200.2,2735.6,194.9,72.1
0.065744,415.7,239.3,2214.6,800.7,2752.7,132.9,407.2,2209.6,2741.7,194.7,72.2
0.067744,412.7,225.6,2217.5,854.7,2747.8,129.5,406.2,2218.6,2748.2,194.6,72.2
0.069744,409.1,209.7,2215.1,889.0,2743.9,123.8,405.1,2227.3,2755.1,194.5,72.3
0.071744,404.3,194.0,2223.3,924.3,2740.4,118.4,403.9,2235.5,2762.3,194.4,72.4
0.073744,398.2,178.1,2238.1,941.2,2738.7,115.4,402.5,2243.2,2769.8,194.3,72.5
0.075744,391.7,156.2,2240.4,904.6,2740.8,114.0,401.1,2250.5,2777.4,194.2,72.7
0.077744,386.9,128.4,2229.5,830.4,2746.3,113.5,399.5,2257.3,2785.3,194.1,73
0.079744,384.3,100.3,2229.5,763.2,2753.5,117.6,397.8,2263.6,2793.2,193.9,73.3
0.081744,383.2,77.8,2257.8,722.6,2762.0,132.9,396,2269.5,2801.1,193.8,73.5
0.083744,382.4,63.5,2303.2,694.4,2771.9,159.2,394.1,2274.9,2809,193.7,73.8
0.085744,381.4,55.0,2343.4,656.5,2785.3,188.4,392.2,2279.9,2816.8,193.5,74
0.087744,380.1,50.4,2361.1,608.7,2803.8,205.5,390.3,2284.5,2824.3,193.4,74.1
0.089744,379.0,48.7,2353.2,568.2,2821.0,202.0,388.3,2288.7,2831.6,193.2,74.1
0.091744,378.4,48.1,2329.2,537.5,2833.0,189.4,386.3,2292.7,2838.5,193.1,74.1
0.093744,378.1,47.7,2302.5,517.2,2839.2,181.9,384.3,2296.4,2845,192.9,74
0.095744,377.7,47.0,2281.8,507.9,2842.4,182.7,382.4,2299.9,2851,192.7,73.9
0.097744,376.9,46.5,2271.9,514.2,2844.9,187.6,380.5,2303.2,2856.5,192.5,73.8
0.099744,375.9,47.1,2274.8,535.1,2850.3,191.6,378.6,2306.5,2861.3,192.4,73.8
0.101744,374.7,48.7,2290.4,565.4,2861.4,194.9,376.9,2309.7,2865.5,192.2,73.7
0.103744,373.2,50.4,2315.7,599.4,2876.2,195.4,375.2,2312.9,2869,192,73.7
0.105744,371.4,51.4,2341.3,634.9,2888.8,189.2,373.6,2316.1,2871.9,191.8,73.6
0.107744,369.9,51.5,2362.5,681.5,2896.8,175.1,372.1,2319.4,2873.9,191.6,73.6
0.109744,369.4,51.1,2373.7,747.1,2900.8,153.4,370.7,2322.8,2875.3,191.4,73.6
0.111744,369.9,50.4,2368.3,815.7,2901.5,129.2,369.4,2326.4,2875.9,191.2,73.6
0.113744,370.8,48.7,2346.1,871.1,2899.2,106.2,368.2,2330.1,2875.8,191,73.7
0.115744,371.2,46.0,2318.7,903.1,2894.2,89.4,367.2,2334,2875.1,190.8,73.8
0.117744,371.3,43.0,2298.6,926.6,2887.9,78.1,366.2,2338,2873.7,190.5,73.9
0.119744,371.4,40.7,2290.3,954.3,2881.8,72.0,365.4,2342.2,2871.8,190.3,74
0.121744,371.3,39.7,2291.6,983.4,2877.1,70.9,364.7,2346.6,2869.3,190.1,74.1
0.123744,371.1,39.2,2299.7,1008.8,2873.3,73.8,364,2351,2866.4,189.9,74.2
0.125744,370.3,38.9,2315.5,1034.5,2869.2,79.3,363.5,2355.6,2863.1,189.7,74.2
0.127744,369.0,38.2,2338.8,1075.2,2864.3,85.1,363,2360.2,2859.5,189.5,74.3
0.129744,367.4,36.9,2369.6,1143.4,2857.5,89.8,362.6,2364.9,2855.8,189.2,74.3
0.131744,366.2,35.2,2398.3,1222.0,2849.7,92.9,362.2,2369.5,2851.9,189,74.3
0.133744,365.4,33.1,2421.4,1294.0,2841.6,97.6,361.8,2374,2848,188.8,74.3
0.135744,364.7,31.3,2444.7,1358.7,2834.2,108.7,361.5,2378.4,2844.3,188.6,74.3
0.137744,363.9,29.7,2462.7,1419.2,2828.4,127.3,361.1,2382.5,2840.7,188.4,74.4
0.139744,363.2,28.1,2464.8,1468.2,2822.9,152.8,360.7,2386.3,2837.4,188.2,74.4
0.141744,362.6,26.3,2448.6,1464.1,2817.8,184.6,360.3,2389.8,2834.4,188,74.4
0.143744,361.9,24.3,2427.1,1375.5,2817.1,217.6,359.9,2392.9,2832,187.8,74.3
0.145744,360.9,22.0,2407.8,1226.8,2824.7,245.9,359.3,2395.5,2830,187.6,74.3
0.147744,359.5,19.7,2391.5,1077.6,2838.4,258.5,358.7,2397.5,2828.6,187.4,74.2
0.149744,357.8,18.0,2379.5,984.0,2848.1,251.5,358,2398.9,2827.9,187.2,74
0.151744,356.1,16.9,2363.8,948.8,2850.5,230.4,357.2,2399.5,2827.9,187,73.8
0.153744,354.7,16.7,2343.7,978.8,2847.8,209.1,356.3,2399.5,2828.6,186.8,73.6
0.155744,353.5,17.4,2330.0,1079.3,2842.7,200.9,355.4,2398.7,2830,186.6,73.4
0.157744,352.4,18.8,2330.0,1242.7,2833.6,208.8,354.3,2397,2832.2,186.4,73.2
0.159744,351.2,20.1,2333.9,1414.0,2821.3,218.5,353.1,2394.5,2835.2,186.3,73
0.161744,349.9,21.3,2321.7,1552.0,2812.7,213.2,351.8,2391.1,2838.8,186.1,72.7
0.163744,348.3,22.6,2292.4,1630.5,2815.0,195.7,350.4,2386.7,2843.2,185.9,72.5
0.165744,346.6,24.4,2273.0,1654.8,2825.9,184.5,349,2381.5,2848.2,185.7,72.3
0.167744,344.8,26.6,2267.5,1649.5,2840.7,185.3,347.5,2375.4,2853.8,185.5,72
0.169744,342.6,29.0,2259.1,1627.5,2853.7,193.9,345.9,2368.3,2860,185.3,71.6
0.171744,340.2,31.2,2235.5,1582.1,2862.3,208.8,344.3,2360.4,2866.6,185.1,71.3
0.173744,338.0,32.7,2217.6,1499.9,2866.7,247.1,342.7,2351.7,2873.6,184.9,71.1
0.175744,336.6,33.7,2265.8,1421.6,2873.4,345.6,341,2342.1,2880.8,184.7,71
0.177744,335.4,34.5,2419.9,1359.2,2877.8,645.7,339.4,2331.8,2888.2,184.5,70.9
0.179744,333.9,35.1,2589.9,747.3,2764.7,1697.3,337.8,2320.7,2895.8,184.3,70.9
0.181744,332.7,35.8,2530.2,568.0,2888.5,2216.1,336.3,2309,2903.3,184.1,71
0.183744,331.7,36.6,2501.8,505.5,3040.5,2571.7,334.8,2296.7,2910.6,183.8,71
0.185744,330.7,36.6,2473.9,526.0,3051.5,233.5,333.5,2283.9,2917.8,183.6,71
0.187744,329.6,35.5,2426.2,624.0,3013.8,236.0,332.2,2270.7,2924.6,183.3,70.9
0.189744,328.7,34.1,2335.2,755.1,2971.5,231.9,331.1,2257.1,2931,183,70.8
0.191744,328.7,34.0,2251.8,847.7,2941.1,236.6,330.2,2243.1,2936.9,182.8,70.6
0.193744,329.4,35.4,2216.0,952.8,2920.6,270.2,329.3,2229,2942.3,182.5,70.5
0.195744,330.1,37.3,2220.5,1090.1,2904.5,325.5,328.7,2214.8,2947,182.2,70.3
0.197744,330.0,38.6,2243.9,1214.0,2899.3,364.5,328.2,2200.5,2951,181.9,70.1
0.199744,329.2,38.8,2265.9,1298.1,2908.2,362.8,328,2186.2,2954.3,181.6,69.9
0.201744,328.1,38.3,2273.1,1357.2,2919.1,323.5,327.9,2172,2956.8,181.2,69.6
0.203744,327.1,37.4,2267.9,1443.6,2922.5,284.6,328,2158,2958.5,180.9,69.3
0.205744,327.1,36.5,2249.0,1616.6,2923.3,266.8,328.3,2144.3,2959.4,180.6,68.9
0.207744,328.8,35.9,2172.8,1818.3,2928.3,274.8,328.7,2130.9,2959.5,180.2,68.6
0.209744,332.1,35.4,2057.8,1913.4,2950.6,288.6,329.4,2117.8,2958.9,179.9,68.3
0.211744,335.9,34.7,1956.4,1966.8,2985.1,268.7,330.2,2105.1,2957.5,179.5,68.2
0.213744,338.9,34.0,1894.6,2171.4,2996.5,231.9,331.1,2092.9,2955.5,179.1,68.1
0.215744,341.2,33.0,1884.4,2580.1,2988.1,209.2,332.2,2081.3,2952.8,178.8,68.1
0.217744,342.9,30.8,1925.8,3034.0,2973.7,196.7,333.4,2070.2,2949.6,178.4,68.2
0.219744,343.7,27.7,2011.7,3261.1,2961.7,186.7,334.7,2059.6,2945.9,178,68.2
0.221744,344.3,24.4,2061.1,3189.9,2951.5,174.7,336.1,2049.7,2941.8,177.6,68.2
0.223744,344.8,21.5,1978.2,2955.0,2941.0,157.1,337.5,2040.4,2937.4,177.3,68.1
0.225744,345.3,19.9,1829.4,2944.5,2932.1,141.7,338.9,2031.8,2932.8,176.9,68
0.227744,346.1,19.6,1636.7,3191.2,2926.3,136.9,340.3,2023.9,2928.1,176.5,68
0.229744,346.9,18.9,1596.6,3069.5,2924.1,149.4,341.8,2016.6,2923.4,176.1,67.9
0.231744,347.0,16.6,1775.4,2368.6,2924.2,171.2,343.1,2010,2918.8,175.7,68
0.233744,346.7,13.8,1922.1,1715.1,2929.1,176.6,344.4,2004.1,2914.4,175.4,68
0.235744,346.2,11.8,1997.6,1367.3,2935.1,166.5,345.6,1998.9,2910.3,175,68
0.237744,345.5,10.7,2039.7,1204.6,2936.3,155.4,346.7,1994.4,2906.5,174.6,68.1
0.239744,344.4,9.9,2068.3,1140.9,2929.4,145.7,347.6,1990.6,2903.2,174.3,68.1
0.241744,342.9,9.3,2096.9,1154.6,2915.3,139.2,348.4,1987.5,2900.3,174,68
0.243744,340.7,8.7,2140.2,1257.4,2895.2,138.8,349,1985.1,2898.1,173.6,67.9
0.245744,338.7,8.3,2203.4,1474.5,2872.9,149.7,349.5,1983.3,2896.4,173.3,67.7
0.247744,337.0,8.5,2285.8,1852.4,2849.3,179.1,349.8,1982.3,2895.4,173,67.5
0.249744,335.4,9.5,2404.1,2455.9,2829.8,252.4,349.9,1981.9,2895.1,172.7,67.3
