time,f1,b1,f2,b2,f3,b3,f1p,f2p,f3p,f0,intensity
0.025007,337.7,15.3,2325.2,639.9,3273.8,162.1,338.7,2580.2,3154.7,169.3,67.9
0.027007,339.2,14.1,2368.6,725.0,3249.9,211.1,338.8,2575.7,3152.7,169.3,68.1
0.029007,340.8,13.3,2455.6,819.7,3212.2,242.7,339.1,2568.2,3149.4,169.3,68.4
0.031007,341.9,12.9,2586.3,906.2,3169.6,268.0,339.5,2558,3144.9,169.3,68.6
0.033007,342.4,12.7,2720.7,972.3,3114.5,273.3,339.9,2545.3,3139.3,169.2,68.9
0.035007,342.7,12.7,2751.0,1012.2,3069.5,212.4,340.4,2530.2,3132.7,169.2,69.2
0.037007,343.1,13.2,2652.9,916.5,3056.1,139.0,341,2513.2,3125.2,169.2,69.4
0.039007,343.8,13.8,2557.4,745.0,3054.3,93.7,341.5,2494.6,3117,169.1,69.6
0.041007,344.5,14.4,2505.7,628.4,3055.6,71.1,342.1,2474.7,3108.3,169.1,69.8
0.043007,345.0,14.9,2479.1,596.2,3057.2,59.2,342.7,2453.9,3099.2,169,69.9
0.045007,345.0,15.2,2457.5,641.8,3057.0,50.6,343.2,2432.8,3089.9,168.9,70
0.047007,344.5,15.1,2425.3,749.5,3055.2,42.2,343.7,2411.6,3080.6,168.9,70.1
0.049007,343.8,14.6,2370.7,875.2,3053.3,33.8,344.1,2390.9,3071.5,168.8,70.1
0.051007,343.0,13.8,2298.2,949.0,3051.4,26.9,344.4,2371.1,3062.8,168.7,70.2
0.053007,342.1,13.1,2236.0,958.3,3049.5,22.5,344.6,2352.4,3054.5,168.6,70.2
0.055007,341.0,12.4,2209.8,959.0,3047.4,21.3,344.7,2335.5,3047,168.5,70.2
0.057007,340.1,11.9,2228.2,995.2,3045.2,23.6,344.6,2320.4,3040.1,168.4,70.3
0.059007,339.5,11.8,2285.3,1055.3,3042.7,30.5,344.4,2307.7,3034.2,168.3,70.3
0.061007,339.4,12.2,2354.2,1080.6,3039.8,43.8,344.1,2297.4,3029.2,168.2,70.3
0.063007,339.2,12.4,2390.3,1043.6,3036.9,65.0,343.6,2289.8,3025.2,168.1,70.3
0.065007,338.8,12.0,2381.9,984.0,3034.5,93.4,343,2285.1,3022.2,167.9,70.3
0.067007,338.2,11.1,2353.1,945.2,3033.0,120.7,342.2,2283.2,3020.2,167.8,70.3
0.069007,337.5,10.2,2327.0,939.8,3033.6,131.9,341.3,2284.3,3019.1,167.7,70.3
0.071007,337.0,9.8,2321.7,973.4,3036.3,126.4,340.4,2288.2,3019,167.5,70.3
0.073007,336.9,10.0,2342.6,1053.1,3038.2,116.2,339.3,2294.9,3019.7,167.4,70.3
0.075007,336.9,10.5,2369.2,1185.3,3036.7,107.3,338.2,2304.2,3021.1,167.2,70.3
0.077007,337.1,11.0,2375.3,1401.3,3032.4,101.8,337.1,2315.9,3023.1,167,70.3
0.079007,337.2,11.2,2363.5,1701.1,3028.7,104.2,335.9,2329.7,3025.5,166.9,70.3
0.081007,337.0,11.1,2383.3,1982.8,3028.4,119.7,334.7,2345.4,3028.3,166.7,70.3
0.083007,336.6,10.8,2480.9,2094.8,3030.9,146.6,333.6,2362.5,3031.2,166.5,70.3
0.085007,336.0,10.5,2567.1,1981.5,3034.1,170.8,332.6,2380.6,3034,166.3,70.3
0.087007,335.2,10.2,2513.9,1836.6,3037.1,178.0,331.6,2399.5,3036.7,166.1,70.3
0.089007,334.4,9.7,2336.6,1740.7,3039.7,175.9,330.7,2418.6,3039,165.9,70.3
0.091007,333.7,9.1,2147.8,1577.7,3042.2,176.5,329.9,2437.7,3040.9,165.7,70.3
0.093007,333.2,8.8,2055.6,1395.2,3044.3,175.2,329.3,2456.1,3042.1,165.5,70.3
0.095007,333.0,8.9,2054.3,1334.6,3044.1,170.3,328.8,2473.6,3042.5,165.3,70.2
0.097007,332.8,9.3,2142.3,1406.2,3040.4,169.2,328.4,2489.8,3042.2,165.1,70.2
0.099007,332.4,9.7,2344.7,1463.9,3033.7,178.4,328.1,2504.2,3040.8,164.9,70.2
0.101007,331.9,9.9,2580.4,1304.3,3026.9,199.9,328,2516.6,3038.5,164.7,70.1
0.103007,331.4,10.1,2710.1,1041.2,3023.8,223.6,328,2526.7,3035.2,164.4,70.1
0.105007,330.9,10.6,2733.8,904.6,3022.7,227.6,328.2,2534.2,3030.9,164.2,70
0.107007,330.5,11.5,2707.8,904.2,3018.8,211.2,328.4,2539,3025.6,164,70
0.109007,330.3,12.8,2659.1,953.3,3014.0,190.7,328.6,2540.9,3019.3,163.8,69.9
0.111007,330.1,14.0,2607.6,993.1,3009.2,175.2,329,2539.7,3012.1,163.5,69.8
0.113007,329.9,14.8,2573.7,1014.7,3003.4,167.0,329.3,2535.5,3004.1,163.3,69.7
0.115007,329.6,15.3,2564.7,1034.5,2996.5,163.3,329.7,2528.3,2995.4,163.1,69.6
0.117007,329.2,15.7,2573.7,1077.4,2987.9,159.9,330,2518.1,2986.2,162.9,69.5
0.119007,328.4,15.7,2588.4,1153.0,2975.5,154.7,330.2,2505,2976.5,162.6,69.4
0.121007,327.0,15.4,2592.0,1235.3,2958.7,145.0,330.4,2489.3,2966.5,162.4,69.3
0.123007,325.5,14.8,2565.9,1285.5,2941.3,127.7,330.5,2471.1,2956.3,162.2,69.2
0.125007,324.3,14.1,2507.9,1276.3,2928.3,106.1,330.4,2450.7,2946.1,162,69.2
0.127007,323.5,13.4,2440.5,1216.1,2921.7,87.1,330.1,2428.3,2936.1,161.8,69.1
0.129007,322.8,12.9,2377.6,1151.8,2920.1,73.7,329.7,2404.4,2926.3,161.6,69
0.131007,322.2,12.4,2313.2,1111.9,2920.3,65.8,329.1,2379.1,2916.8,161.4,68.9
0.133007,321.4,11.8,2258.1,1085.1,2920.1,62.7,328.4,2352.8,2907.9,161.2,68.8
0.135007,320.9,11.4,2245.8,1065.3,2918.5,64.4,327.4,2326,2899.6,161.1,68.8
0.137007,320.6,11.4,2289.0,1049.4,2915.5,70.8,326.3,2299,2891.8,160.9,68.7
0.139007,320.5,11.9,2354.4,1022.2,2911.1,80.8,325,2272,2884.8,160.7,68.7
0.141007,320.4,12.6,2377.6,1016.8,2905.4,89.7,323.5,2245.5,2878.5,160.6,68.6
0.143007,320.1,12.9,2319.9,1072.1,2897.1,94.6,322,2219.8,2872.9,160.4,68.6
0.145007,319.4,12.3,2199.2,1124.5,2885.4,99.9,320.3,2195.2,2867.9,160.3,68.6
0.147007,318.5,11.4,2085.1,1111.7,2871.1,108.0,318.6,2172,2863.6,160.1,68.6
0.149007,317.9,10.5,2017.1,1085.1,2857.9,114.6,316.9,2150.4,2859.8,160,68.6
0.151007,317.5,9.8,1980.8,1098.1,2848.4,115.9,315.2,2130.6,2856.5,159.9,68.6
0.153007,317.3,9.5,1957.9,1178.6,2841.2,112.8,313.6,2112.9,2853.6,159.7,68.6
0.155007,317.5,9.8,1953.3,1313.9,2833.7,108.7,312.1,2097.3,2850.9,159.6,68.6
0.157007,317.9,10.5,1996.9,1408.6,2826.0,106.9,310.7,2084,2848.2,159.5,68.7
0.159007,318.2,11.0,2066.1,1359.1,2819.5,108.1,309.6,2073.1,2845.6,159.4,68.7
0.161007,318.3,10.9,2098.3,1209.0,2815.2,108.9,308.7,2064.6,2842.7,159.3,68.8
0.163007,318.3,10.2,2100.6,1030.2,2814.0,105.5,308.2,2058.5,2839.4,159.2,68.8
0.165007,318.2,9.4,2099.4,869.8,2816.9,96.0,307.9,2054.8,2835.7,159,68.8
0.167007,318.0,8.8,2094.8,774.3,2822.4,85.3,308,2053.3,2831.4,158.9,68.7
0.169007,317.8,8.4,2085.1,733.0,2827.4,77.9,308.6,2054.1,2826.3,158.8,68.7
0.171007,317.7,8.5,2080.8,723.2,2829.3,73.6,309.5,2056.9,2820.4,158.7,68.7
0.173007,317.8,9.1,2086.9,746.8,2826.2,71.0,310.9,2061.6,2813.6,158.6,68.7
0.175007,318.2,10.1,2095.8,799.7,2818.3,70.2,312.7,2068.1,2805.8,158.4,68.6
0.177007,318.8,11.2,2101.5,864.4,2808.2,73.7,315,2076.2,2797,158.3,68.6
0.179007,319.7,12.4,2109.5,898.0,2800.4,86.4,317.6,2085.6,2787.2,158.2,68.6
0.181007,320.4,13.1,2131.4,840.1,2798.6,114.0,320.7,2096.2,2776.5,158,68.5
0.183007,321.0,13.5,2161.7,707.8,2803.3,157.9,324.1,2107.8,2764.8,157.9,68.5
0.185007,321.7,14.2,2186.0,596.8,2805.1,214.7,327.9,2120.2,2752.3,157.7,68.4
0.187007,322.6,15.0,2201.1,571.9,2781.1,275.5,331.9,2133.1,2739,157.6,68.4
0.189007,324.0,16.0,2199.1,640.7,2723.7,296.0,336.2,2146.3,2725.2,157.4,68.3
0.191007,325.7,17.1,2172.6,741.1,2676.7,254.5,340.6,2159.7,2710.9,157.2,68.2
0.193007,327.8,18.3,2144.7,821.0,2655.9,204.7,345.2,2173,2696.3,157,68.1
0.195007,330.1,19.5,2130.2,886.2,2645.7,167.7,349.8,2186.1,2681.7,156.8,68
0.197007,332.9,21.1,2135.4,938.0,2639.0,145.9,354.4,2198.8,2667.2,156.6,67.8
0.199007,336.5,23.3,2162.6,983.1,2632.1,139.2,358.8,2210.9,2653,156.4,67.6
0.201007,341.2,26.8,2207.1,1024.3,2621.4,145.5,363.1,2222.3,2639.4,156.2,67.2
0.203007,347.4,31.6,2257.3,1053.7,2607.3,158.7,367.2,2232.8,2626.5,156,66.8
0.205007,355.9,37.0,2297.9,1037.1,2595.5,172.1,371,2242.4,2614.6,155.7,66.4
0.207007,366.7,41.5,2317.4,948.0,2590.3,186.7,374.4,2250.9,2603.8,155.5,65.9
0.209007,378.6,44.2,2313.8,835.5,2590.3,198.6,377.4,2258.3,2594.4,155.3,65.4
0.211007,390.3,44.8,2291.8,744.3,2592.9,199.0,379.9,2264.4,2586.5,155.1,64.8
0.213007,400.7,43.7,2255.3,656.2,2597.6,186.3,381.9,2269.2,2580.1,154.9,64.3
0.215007,410.2,42.9,2218.4,556.5,2602.0,165.8,383.4,2272.7,2575.5,154.7,63.8
0.217007,417.8,43.6,2194.7,484.6,2601.5,148.1,384.3,2274.8,2572.8,154.5,63.3
0.219007,420.9,44.9,2176.2,465.4,2593.6,142.0,384.6,2275.5,2571.8,154.3,62.9
