time,f1,b1,f2,b2,f3,b3,f1p,f2p,f3p,f0,intensity
0.025723,567.1,162.1,1517.6,168.2,2700.3,233.0,642.5,1564.8,2694.9,134.9,63.8
0.027723,581.8,156.7,1523.0,161.4,2697.1,167.0,642.6,1564.2,2695.1,134.8,64.3
0.029723,597.0,160.6,1529.4,161.5,2695.8,121.0,642.7,1563.4,2695.4,134.7,64.9
0.031723,610.9,158.5,1534.2,161.2,2693.7,100.9,642.8,1562.2,2695.8,134.6,65.4
0.033723,623.2,148.9,1538.9,161.5,2689.4,96.5,643.2,1560.7,2696.3,134.6,65.9
0.035723,637.2,142.1,1548.9,170.0,2682.4,103.2,643.7,1558.9,2696.9,134.5,66.4
0.037723,652.2,140.2,1563.9,184.3,2676.5,115.3,644.4,1557,2697.5,134.4,66.8
0.039723,663.1,136.1,1575.1,191.5,2678.0,122.9,645.5,1554.9,2698.1,134.3,67.2
0.041723,669.4,127.3,1575.5,187.0,2686.2,124.8,647.1,1552.7,2698.7,134.1,67.5
0.043723,674.6,116.8,1568.0,175.1,2695.0,126.6,649,1550.4,2699.3,134,67.8
0.045723,680.6,106.9,1560.3,161.4,2699.3,130.0,651.6,1548.1,2699.8,133.9,68
0.047723,685.7,98.5,1556.7,150.8,2700.8,131.5,654.8,1545.9,2700.2,133.8,68.1
0.049723,689.8,94.6,1557.0,146.6,2703.6,129.9,658.6,1543.7,2700.5,133.6,68.2
0.051723,694.8,98.9,1560.9,150.1,2706.6,128.7,663.2,1541.7,2700.6,133.5,68.2
0.053723,701.7,109.0,1567.0,158.4,2708.1,130.7,668.6,1539.9,2700.6,133.3,68.1
0.055723,708.6,117.0,1571.4,167.2,2711.6,135.5,674.8,1538.2,2700.4,133.1,68
0.057723,715.0,121.8,1572.4,176.9,2719.6,144.6,681.7,1536.8,2700,133,67.8
0.059723,722.5,128.7,1570.6,187.8,2728.0,158.9,689.5,1535.6,2699.4,132.8,67.6
0.061723,729.9,136.1,1566.0,194.3,2729.0,171.6,697.9,1534.7,2698.5,132.6,67.4
0.063723,734.4,137.1,1558.9,194.1,2722.3,173.2,707.1,1534,2697.5,132.4,67.3
0.065723,737.9,134.8,1552.4,196.2,2714.0,167.2,716.9,1533.4,2696.3,132.2,67.1
0.067723,743.3,138.0,1551.7,209.1,2707.2,164.8,727.2,1533,2694.9,131.9,67
0.069723,749.2,144.1,1554.0,224.8,2700.7,169.0,738,1532.8,2693.3,131.7,66.8
0.071723,753.6,145.9,1550.3,227.4,2693.9,177.1,749,1532.6,2691.6,131.5,66.8
0.073723,758.5,145.3,1535.1,210.9,2684.2,189.9,760.3,1532.5,2689.7,131.2,66.7
0.075723,765.1,146.9,1515.1,183.4,2671.2,205.3,771.5,1532.3,2687.7,131,66.6
0.077723,771.0,149.0,1499.8,159.0,2663.6,209.6,782.7,1531.9,2685.7,130.7,66.6
0.079723,774.8,149.2,1489.8,143.5,2667.0,196.6,793.6,1531.4,2683.6,130.4,66.6
0.081723,779.0,151.4,1484.2,140.2,2672.2,175.2,804.1,1530.7,2681.6,130.1,66.6
0.083723,784.9,159.5,1483.5,149.1,2674.1,153.7,814,1529.6,2679.5,129.8,66.7
0.085723,789.3,170.4,1485.5,161.1,2675.2,135.1,823.3,1528.1,2677.6,129.5,66.6
0.087723,789.6,180.1,1485.9,171.0,2675.8,124.1,831.8,1526.2,2675.7,129.2,66.6
0.089723,788.0,190.6,1484.8,186.8,2673.7,123.5,839.4,1523.7,2673.9,128.8,66.5
0.091723,788.9,202.9,1485.7,212.5,2667.8,128.9,846,1520.7,2672.3,128.4,66.3
0.093723,792.3,214.6,1487.9,232.6,2660.9,133.0,851.5,1517.1,2670.8,128,66.2
0.095723,797.4,232.7,1489.7,239.6,2654.5,137.1,856,1512.8,2669.5,127.6,65.9
0.097723,807.5,269.6,1492.1,249.4,2646.6,146.5,859.4,1508,2668.3,127.1,65.7
0.099723,822.7,318.4,1493.7,270.4,2639.9,158.6,861.7,1502.4,2667.3,126.6,65.4
0.101723,836.1,354.1,1493.3,294.0,2639.8,164.7,862.9,1496.3,2666.6,126,65.1
0.103723,848.2,381.0,1495.2,326.4,2647.4,161.5,863.1,1489.6,2665.9,125.4,64.8
0.105723,867.8,420.7,1503.0,395.8,2660.9,155.2,862.4,1482.3,2665.4,124.7,64.5
0.107723,903.5,466.1,1521.9,518.6,2676.1,149.5,861,1474.5,2665.1,123.9,64.2
0.109723,941.1,487.5,1547.2,632.3,2687.2,144.3,858.8,1466.3,2664.8,123.1,64
0.111723,953.3,508.0,1540.8,648.4,2690.8,145.3,856,1457.7,2664.7,122.2,63.7
0.113723,938.4,544.7,1503.3,569.9,2685.1,158.8,852.9,1448.9,2664.5,121.3,63.5
0.115723,921.1,578.5,1473.1,485.4,2671.8,180.3,849.5,1440,2664.4,120.2,63.3
0.117723,911.6,615.1,1448.6,432.9,2659.7,194.0,846.1,1431,2664.3,119.1,63
0.119723,897.7,665.9,1423.6,389.9,2654.1,197.0,842.8,1422.1,2664.2,117.9,62.6
0.121723,871.4,733.6,1400.0,346.7,2652.9,198.4,839.7,1413.3,2663.9,116.6,62.2
0.123723,841.0,796.7,1383.1,314.5,2656.8,202.7,837,1404.9,2663.6,115.2,61.8
0.125723,823.5,839.6,1373.7,302.2,2668.6,207.0,834.9,1396.9,2663.1,113.8,61.3
0.127723,817.1,881.5,1369.9,303.9,2684.7,209.2,833.4,1389.4,2662.5,112.3,60.9
0.129723,811.3,933.9,1371.6,312.0,2697.7,213.2,832.7,1382.5,2661.7,110.8,60.5
0.131723,807.3,966.3,1378.6,321.0,2702.3,220.8,832.8,1376.3,2660.7,109.1,60.3
0.133723,807.7,916.1,1386.5,331.4,2699.7,229.5,833.8,1371,2659.5,107.5,60.1
0.135723,807.0,783.2,1389.9,354.2,2693.8,243.1,835.7,1366.5,2658.2,0,60.1
0.137723,810.8,647.0,1384.8,401.8,2680.1,265.0,838.6,1363,2656.7,0,60
0.139723,816.2,552.1,1371.4,456.3,2654.4,288.8,842.2,1360.4,2655,0,60
0.141723,819.5,498.8,1356.7,493.0,2628.8,306.5,846.7,1358.9,2653.2,0,60
0.143723,825.2,483.8,1347.7,518.0,2619.9,318.6,851.9,1358.4,2651.2,0,60
0.145723,836.0,512.1,1344.1,523.5,2628.3,318.7,857.6,1358.9,2649.3,0,60.2
0.147723,862.3,598.3,1336.0,514.1,2636.7,305.5,863.7,1360.4,2647.3,96,60.5
0.149723,904.8,714.6,1318.1,506.6,2635.5,291.9,870.1,1362.9,2645.3,94.5,60.9
0.151723,931.4,785.4,1307.9,488.5,2630.7,277.1,876.6,1366.3,2643.3,93.1,61.2
0.153723,928.5,784.7,1314.1,468.6,2628.0,258.2,882.8,1370.6,2641.6,91.8,61.4
0.155723,905.6,736.4,1329.3,452.4,2628.3,239.1,888.8,1375.7,2639.9,90.6,61.5
0.157723,870.0,651.9,1348.2,441.4,2628.5,228.4,894.1,1381.5,2638.6,89.5,61.6
0.159723,840.3,557.8,1369.8,450.1,2620.8,236.3,898.7,1387.9,2637.4,88.5,61.7
0.161723,839.8,509.8,1399.8,477.9,2606.2,242.2,902.2,1394.8,2636.7,87.7,61.9
0.163723,862.4,515.0,1427.3,499.6,2607.6,224.6,904.6,1402.2,2636.3,87,62.1
0.165723,886.8,534.9,1442.7,513.6,2617.5,204.9,905.7,1409.9,2636.3,86.4,62.3
0.167723,896.1,546.4,1447.5,507.2,2626.3,190.8,905.2,1417.8,2636.8,85.9,62.4
0.169723,887.5,546.0,1445.2,487.6,2632.8,187.1,903.1,1425.8,2637.7,85.6,62.3
0.171723,872.7,532.7,1444.6,488.7,2638.1,199.5,899.4,1433.8,2639.2,85.3,62.2
0.173723,868.4,506.3,1461.0,538.5,2636.5,227.5,893.8,1441.8,2641.2,85.2,62.1
0.175723,879.8,482.8,1499.7,577.7,2629.3,223.4,886.5,1449.6,2643.6,85.2,62.2
0.177723,893.2,471.2,1528.4,561.8,2632.8,188.7,877.4,1457.2,2646.6,85.3,62.2
0.179723,887.7,460.8,1520.6,520.6,2643.9,169.5,866.6,1464.5,2650,85.5,62.2
0.181723,865.4,431.7,1492.7,453.6,2657.5,163.6,854.2,1471.4,2653.8,85.7,62.1
0.183723,847.9,393.3,1470.1,387.0,2674.3,152.6,840.4,1477.9,2658,86.1,61.8
0.185723,838.4,392.0,1455.8,353.2,2695.7,135.9,825.2,1484,2662.6,86.5,61.4
0.187723,822.0,451.9,1457.8,333.2,2710.7,130.1,809,1489.6,2667.5,86.9,61.1
0.189723,799.8,543.3,1473.0,308.6,2718.0,126.3,791.9,1494.7,2672.5,87.4,60.9
0.191723,788.5,632.2,1482.5,301.8,2726.7,110.8,774.3,1499.3,2677.7,88,61
0.193723,787.2,697.3,1483.8,320.8,2734.8,90.0,756.3,1503.4,2683,88.6,61.1
0.195723,787.2,721.6,1481.8,364.7,2738.7,77.2,738.2,1507.1,2688.3,89.2,61.4
0.197723,795.1,722.3,1490.4,426.4,2737.5,81.6,720.5,1510.3,2693.4,89.8,61.6
0.199723,817.1,729.9,1520.2,467.2,2729.7,108.6,703.3,1513.1,2698.4,90.4,61.8
0.201723,826.6,745.1,1539.1,462.3,2713.9,156.2,687,1515.5,2703.1,91,61.8
0.203723,809.5,771.2,1533.3,442.3,2694.4,212.2,671.8,1517.5,2707.5,91.6,61.8
0.205723,771.3,831.7,1517.3,426.9,2683.3,251.5,658.1,1519.1,2711.4,92.2,61.8
0.207723,693.6,940.6,1505.6,411.7,2681.8,264.2,646,1520.5,2714.9,92.8,61.9
0.209723,589.8,1006.8,1514.8,383.6,2683.7,248.6,635.8,1521.5,2717.8,93.4,62.1
0.211723,532.4,1000.4,1529.4,357.3,2687.2,222.2,627.6,1522.3,2720.1,93.9,62.4
0.213723,506.5,1019.5,1531.2,355.6,2691.3,200.7,621.7,1522.9,2721.8,94.4,62.9
0.215723,468.3,1095.4,1523.0,378.0,2693.3,187.7,618.1,1523.2,2722.8,94.9,63.4
0.217723,396.7,1188.6,1508.1,411.5,2689.7,188.8,616.9,1523.3,2723.1,95.3,63.8
