time,f1,b1,f2,b2,f3,b3,f1p,f2p,f3p,f0,intensity
0.025798,459.6,57.7,2156.0,656.1,2602.7,147.0,416.9,2171.9,2636.4,187.6,66.9
0.027798,446.0,59.3,2180.1,586.8,2610.3,151.6,415.7,2175.5,2638.6,187.5,67
0.029798,430.6,59.5,2186.9,523.2,2625.6,141.5,413.9,2181.4,2642.4,187.4,67.2
0.031798,414.6,56.9,2181.3,476.0,2643.8,120.6,411.3,2189.2,2647.5,187.3,67.5
0.033798,400.0,51.0,2171.8,453.3,2661.3,97.9,408.1,2198.6,2654,187.2,67.7
0.035798,388.2,43.9,2167.2,466.5,2677.1,80.6,404.4,2209.1,2661.7,187.1,68
0.037798,379.2,37.5,2174.8,529.2,2689.5,71.7,400.1,2220.2,2670.5,186.9,68.3
0.039798,373.1,32.6,2201.9,629.5,2694.9,72.5,395.4,2231.4,2680.3,186.7,68.6
0.041798,368.8,28.4,2249.2,727.8,2694.9,82.3,390.4,2242,2690.9,186.5,68.8
0.043798,365.8,24.3,2301.5,764.4,2695.5,99.6,385.2,2251.7,2702.2,186.3,69
0.045798,363.8,20.4,2336.8,711.0,2706.9,121.0,379.9,2259.8,2713.9,186.1,69.2
0.047798,362.7,17.1,2341.8,610.3,2734.8,132.9,374.6,2266,2725.9,185.8,69.4
0.049798,362.0,14.7,2326.0,536.0,2767.7,119.2,369.4,2269.8,2738.1,185.5,69.5
0.051798,361.5,13.3,2309.8,518.8,2788.2,92.5,364.4,2271,2750.2,185.2,69.6
0.053798,360.8,12.8,2300.0,557.9,2794.7,69.0,359.7,2269.4,2762.1,184.9,69.6
0.055798,359.8,13.0,2285.6,656.2,2793.8,50.2,355.4,2265.1,2773.6,184.6,69.6
0.057798,358.6,13.5,2252.0,798.0,2791.6,35.9,351.6,2258,2784.5,184.2,69.5
0.059798,357.2,14.3,2192.6,946.2,2791.4,25.8,348.4,2248.3,2794.8,183.8,69.4
0.061798,355.8,14.9,2128.8,1057.9,2793.5,20.0,345.8,2236.5,2804.3,183.4,69.2
0.063798,354.5,15.5,2096.8,1145.7,2796.2,17.9,343.8,2222.8,2812.9,182.9,69
0.065798,353.4,16.0,2115.6,1239.4,2797.3,18.7,342.4,2207.7,2820.6,182.5,68.7
0.067798,352.3,16.2,2177.2,1321.2,2796.9,22.2,341.6,2191.9,2827.3,182,68.4
0.069798,351.3,16.2,2245.4,1324.6,2797.7,29.1,341.5,2175.8,2833.1,181.5,68
0.071798,350.0,16.5,2270.3,1203.2,2803.1,40.3,341.8,2160,2837.9,181,67.7
0.073798,348.7,17.5,2231.9,988.8,2815.7,54.4,342.7,2145.2,2841.8,180.4,67.4
0.075798,347.5,19.6,2159.8,755.4,2835.4,62.5,343.9,2131.9,2844.9,179.9,67
0.077798,346.6,21.9,2101.9,589.3,2852.1,57.8,345.3,2120.6,2847.2,179.3,66.7
0.079798,345.8,23.3,2065.9,493.1,2861.4,49.0,346.9,2111.7,2848.9,178.7,66.4
0.081798,344.9,23.2,2046.8,452.4,2865.7,43.6,348.6,2105.5,2850.2,178.1,66.2
0.083798,344.0,22.5,2040.7,458.4,2866.6,42.8,350.1,2102.4,2851,177.5,66
0.085798,343.7,22.2,2049.5,506.6,2864.7,47.3,351.4,2102.4,2851.6,176.8,65.8
0.087798,344.0,22.0,2078.3,582.1,2861.6,57.2,352.5,2105.6,2852.1,176.2,65.6
0.089798,344.5,21.0,2126.8,662.6,2858.7,72.9,353.1,2111.9,2852.5,175.6,65.4
0.091798,345.1,18.9,2189.4,734.5,2856.3,94.3,353.2,2121.1,2853,174.9,65.2
0.093798,345.3,16.6,2256.4,782.5,2855.9,118.0,352.8,2133,2853.7,174.3,65
0.095798,345.3,15.4,2282.2,771.9,2861.9,121.7,351.8,2147.1,2854.6,173.6,64.8
0.097798,345.0,15.7,2239.9,709.4,2871.7,92.8,350.3,2163.1,2855.7,173,64.6
0.099798,344.2,16.9,2177.3,628.9,2877.9,60.4,348.3,2180.4,2857,172.4,64.5
0.101798,343.0,18.0,2145.2,559.9,2879.2,42.4,345.8,2198.7,2858.5,171.8,64.4
0.103798,341.5,18.6,2149.9,505.4,2875.9,35.3,342.9,2217.3,2860.1,171.1,64.3
0.105798,339.6,18.4,2172.1,452.3,2869.3,33.5,339.8,2235.8,2861.6,170.5,64.3
0.107798,337.3,17.8,2192.0,405.3,2861.3,33.9,336.6,2253.6,2863,169.9,64.3
0.109798,335.4,17.2,2205.7,383.8,2854.9,35.6,333.4,2270.4,2864.2,169.4,64.4
0.111798,334.4,16.7,2222.3,400.4,2851.7,39.5,330.5,2285.7,2864.8,168.8,64.5
0.113798,334.6,16.3,2253.9,462.4,2850.4,47.5,328,2299.2,2864.9,168.2,64.7
0.115798,335.6,16.3,2302.2,553.8,2848.1,59.6,326.1,2310.6,2864.1,167.7,64.8
0.117798,336.8,16.6,2356.7,639.2,2842.9,73.4,324.9,2319.9,2862.4,167.1,65
0.119798,337.8,17.0,2396.2,685.5,2836.3,84.5,324.8,2326.8,2859.6,166.6,65.2
0.121798,338.6,17.6,2409.4,693.6,2831.0,90.0,325.6,2331.4,2855.5,166.1,65.3
0.123798,339.1,18.2,2398.2,676.1,2827.3,89.4,327.7,2333.7,2850.1,165.5,65.4
0.125798,339.8,19.1,2371.9,643.8,2823.4,84.5,331,2333.8,2843.4,165,65.4
0.127798,340.9,20.8,2339.9,606.7,2818.5,77.3,335.6,2331.8,2835.2,164.5,65.3
0.129798,342.3,23.4,2307.5,569.4,2813.4,70.7,341.6,2328.1,2825.6,164.1,65.2
0.131798,344.3,27.3,2281.1,539.8,2809.5,67.5,348.7,2322.8,2814.7,163.6,64.9
0.133798,347.9,32.9,2267.9,532.1,2808.0,69.4,357,2316.1,2802.7,163.1,64.6
0.135798,353.2,40.1,2270.0,549.7,2809.6,78.3,366.3,2308.5,2789.7,162.6,64.3
0.137798,360.3,49.3,2282.5,578.8,2812.6,97.4,376.4,2300.2,2775.8,162.2,63.9
0.139798,369.5,59.1,2295.6,601.6,2812.4,125.5,387.2,2291.4,2761.5,161.8,63.5
0.141798,381.3,65.6,2298.4,614.4,2801.0,148.8,398.3,2282.4,2746.9,161.3,63.2
0.143798,395.3,66.6,2287.8,620.7,2774.6,146.2,409.5,2273.6,2732.3,160.9,63
0.145798,409.2,63.3,2275.0,614.3,2743.8,122.8,420.5,2265,2718.2,160.5,62.9
0.147798,422.4,59.3,2272.7,601.0,2715.3,99.8,431.1,2257,2704.7,160.1,62.9
0.149798,436.3,57.2,2276.5,589.9,2691.2,82.9,440.9,2249.7,2692.3,159.7,63
0.151798,451.5,55.8,2278.1,583.9,2673.6,70.4,449.7,2243.3,2681.2,159.4,63.1
0.153798,464.6,51.8,2269.2,581.1,2663.2,61.9,457.3,2237.9,2671.7,159,63.2
0.155798,474.9,44.7,2241.1,569.1,2656.0,56.1,463.5,2233.6,2664.1,158.7,63.4
0.157798,481.5,37.3,2203.9,536.7,2646.6,56.2,468,2230.5,2658.5,158.4,63.7
0.159798,484.3,32.6,2188.3,505.9,2627.3,68.3,470.7,2228.6,2655,158.1,64
0.161798,486.0,30.8,2192.4,513.5,2590.5,88.4,471.7,2227.9,2653.9,157.9,64.4
