time,f1,b1,f2,b2,f3,b3,f1p,f2p,f3p,f0,intensity
0.025748,430.3,83.0,2004.6,532.5,2983.1,46.2,421.2,2290.6,2978.5,119.1,58.3
0.027748,431.8,83.8,2057.2,564.8,2975.1,47.4,420.8,2292.4,2978.2,119.5,58.6
0.029748,430.2,86.8,2092.1,567.7,2968.6,50.9,420.1,2295.4,2977.8,119.9,58.9
0.031748,427.7,95.0,2114.5,554.7,2964.0,59.1,419.2,2299.5,2977.2,120.3,59.1
0.033748,426.4,113.4,2137.1,554.0,2956.2,78.7,418,2304.8,2976.4,120.8,59.3
0.035748,425.4,135.9,2168.9,590.4,2940.3,113.3,416.6,2311,2975.5,121.3,59.4
0.037748,422.5,144.6,2225.6,633.6,2924.5,144.7,415,2318.3,2974.4,121.7,59.5
0.039748,419.5,140.6,2322.4,593.9,2927.9,150.0,413.1,2326.5,2973.1,122.2,59.5
0.041748,418.1,133.3,2426.4,446.6,2947.9,134.0,411,2335.4,2971.8,122.7,59.6
0.043748,417.2,125.2,2492.8,312.8,2967.4,114.7,408.7,2345.1,2970.2,123.2,59.6
0.045748,413.7,115.8,2526.6,247.9,2981.5,104.6,406.2,2355.5,2968.6,123.7,59.5
0.047748,406.7,103.1,2547.0,225.3,2995.4,102.4,403.6,2366.3,2966.8,124.1,59.5
0.049748,398.3,87.6,2564.8,221.4,3012.2,104.6,400.8,2377.5,2964.9,124.6,59.6
0.051748,390.6,76.4,2578.3,228.2,3007.4,2189.4,397.8,2389,2962.9,125,59.6
0.053748,384.0,71.9,2587.4,234.2,2982.5,1678.7,394.7,2400.7,2960.7,125.4,59.6
0.055748,378.3,70.1,2597.4,235.1,2961.5,1473.9,391.5,2412.3,2958.5,125.7,59.5
0.057748,375.2,67.9,2608.5,238.6,2945.7,1407.3,388.2,2423.9,2956.3,126,59.5
0.059748,374.0,65.0,2619.3,259.4,2940.6,1318.1,384.8,2435.3,2953.9,126.2,59.5
0.061748,371.9,61.9,2627.1,308.6,2951.4,1111.7,381.4,2446.3,2951.5,126.4,59.4
0.063748,367.8,60.2,2626.8,373.9,3002.4,845.8,377.9,2456.8,2949.1,126.6,59.4
0.065748,364.5,61.7,2608.9,437.0,2975.9,419.3,374.5,2466.7,2946.6,126.7,59.4
0.067748,363.2,67.5,2540.9,478.8,2930.5,344.8,371,2476,2944,126.8,59.4
0.069748,361.8,82.4,2451.3,409.8,2925.5,294.2,367.5,2484.4,2941.5,126.8,59.3
0.071748,358.5,117.1,2407.6,322.3,2931.6,308.1,364.1,2492,2938.9,126.8,59.3
0.073748,352.7,179.0,2398.2,276.2,2944.3,364.7,360.7,2498.6,2936.4,126.7,59.3
0.075748,343.3,247.6,2406.3,261.0,2963.5,424.7,357.4,2504.1,2933.8,126.7,59.2
0.077748,334.1,279.5,2424.0,262.7,2984.6,451.7,354.1,2508.4,2931.3,126.7,59.1
0.079748,329.2,265.1,2452.6,278.1,3000.4,437.1,351,2511.6,2928.8,126.6,58.9
0.081748,328.3,219.2,2490.9,314.5,2991.5,390.2,348,2513.6,2926.3,126.7,58.7
0.083748,328.4,161.9,2516.7,391.7,2944.3,311.1,345.1,2514.3,2923.8,126.7,58.5
0.085748,327.8,114.6,2480.0,478.0,2903.1,201.1,342.3,2513.6,2921.4,126.9,58.4
0.087748,329.3,82.4,2421.0,507.1,2891.8,138.2,339.7,2511.7,2919,127.2,58.3
0.089748,334.3,64.2,2403.6,559.1,2892.6,128.9,337.2,2508.5,2916.7,127.6,58.3
0.091748,339.3,53.3,2416.5,675.6,2893.6,134.4,334.9,2503.9,2914.4,128.1,58.4
0.093748,341.6,45.3,2418.2,824.5,2889.2,124.0,332.8,2498.1,2912.2,128.9,58.5
0.095748,344.5,39.3,2386.1,933.0,2883.4,104.8,330.8,2491,2910.1,129.9,58.5
0.097748,351.3,35.2,2341.0,972.5,2878.4,94.1,329.1,2482.8,2908,131.1,58.5
0.099748,358.7,33.4,2314.2,965.3,2876.4,96.9,327.4,2473.3,2906,132.6,58.4
0.101748,360.3,33.7,2306.8,976.0,2877.9,107.3,326,2462.8,2904.1,134.5,58.3
0.103748,354.7,35.8,2316.0,1049.8,2880.7,117.0,324.8,2451.3,2902.3,136.6,58.2
0.105748,347.3,38.2,2346.5,1173.6,2883.6,120.3,323.7,2438.9,2900.5,139.1,58.2
0.107748,341.3,39.4,2386.4,1276.4,2886.0,115.7,322.8,2425.6,2898.8,142,58.3
0.109748,335.8,38.8,2402.3,1266.9,2886.8,109.7,322.1,2411.6,2897.3,145.2,58.5
0.111748,330.0,36.7,2395.4,1166.9,2887.1,108.9,321.5,2396.9,2895.8,148.8,58.6
0.113748,326.7,33.8,2390.5,1058.2,2888.7,118.2,321.1,2381.6,2894.4,152.8,58.8
0.115748,327.5,30.8,2406.1,1003.6,2892.5,148.3,320.8,2365.9,2893.1,157.2,59
0.117748,328.3,28.5,2436.8,1026.0,2895.8,200.0,320.6,2349.9,2891.9,161.9,59.1
0.119748,324.4,26.8,2456.2,1097.5,2892.0,243.6,320.6,2333.6,2890.9,167,59.2
0.121748,318.3,25.9,2447.0,1152.2,2885.3,259.3,320.7,2317.2,2889.9,172.3,59.2
0.123748,314.5,25.7,2416.0,1117.0,2887.0,268.0,320.9,2300.7,2889,178,59.1
0.125748,315.1,26.3,2382.4,1015.6,2898.8,282.7,321.2,2284.4,2888.3,183.8,58.9
0.127748,317.4,27.0,2376.6,959.4,2908.9,287.5,321.5,2268.2,2887.6,189.8,58.6
0.129748,317.1,27.5,2380.7,982.3,2905.2,259.7,321.9,2252.3,2887.1,196,58.2
0.131748,313.7,28.3,2373.9,1036.9,2894.1,215.4,322.4,2236.8,2886.7,0,57.8
0.133748,309.4,31.5,2368.3,1071.7,2882.5,182.1,322.9,2221.7,2886.4,208.5,57.4
0.135748,305.7,39.2,2364.4,1072.8,2870.8,164.6,323.4,2207.1,2886.3,214.7,57.1
0.137748,304.3,48.4,2336.3,1054.2,2864.5,154.2,323.9,2193.2,2886.2,220.8,56.9
0.139748,304.8,54.9,2272.8,1015.1,2865.1,144.5,324.4,2179.9,2886.4,226.8,56.7
0.141748,307.4,61.3,2180.9,935.6,2869.7,136.8,324.9,2167.4,2886.6,232.6,56.5
0.143748,312.6,71.3,2090.0,825.7,2877.2,135.8,325.4,2155.6,2887,238.2,56.2
0.145748,321.8,88.6,2023.3,712.7,2890.3,141.6,325.8,2144.6,2887.5,243.5,55.8
0.147748,334.0,111.2,1995.0,646.9,2906.9,140.3,326.1,2134.5,2888.1,248.6,55.3
0.149748,341.3,128.2,1999.9,655.5,2916.2,123.4,326.4,2125.2,2888.9,253.3,54.8
0.151748,336.2,129.1,2022.0,721.8,2916.9,103.9,326.6,2116.8,2889.8,257.6,54.4
0.153748,324.2,118.0,2042.6,816.7,2914.0,85.9,326.7,2109.3,2890.8,261.6,54.1
0.155748,314.7,106.7,2040.5,902.2,2910.1,70.0,326.7,2102.7,2891.9,265.3,53.7
0.157748,312.3,106.1,2009.9,938.1,2906.7,60.1,326.6,2097,2893.2,268.5,53.1
0.159748,320.2,126.1,1985.9,896.7,2904.5,66.7,326.4,2092.1,2894.6,271.4,52.3
0.161748,339.1,166.4,2004.8,804.4,2904.0,98.9,326.1,2088.1,2896.2,274,51.5
0.163748,355.1,189.6,2048.1,697.0,2906.0,135.3,325.6,2084.8,2897.8,276.3,50.9
0.165748,346.6,160.9,2086.2,622.7,2908.5,130.8,325.1,2082.4,2899.5,278.2,50.8
0.167748,331.6,122.1,2113.2,600.1,2908.6,106.3,324.4,2080.6,2901.4,279.8,50.9
0.169748,319.7,96.0,2127.8,619.1,2906.7,83.9,323.7,2079.6,2903.3,281.2,51.1
0.171748,311.0,81.9,2125.2,657.4,2904.0,66.6,322.8,2079.1,2905.3,282.3,51
0.173748,304.9,76.5,2103.0,668.6,2901.1,53.6,321.8,2079.3,2907.4,283.1,50.7
0.175748,303.1,83.7,2080.7,569.2,2898.7,50.0,320.7,2080,2909.5,283.8,49.9
0.177748,308.5,120.9,2083.0,431.7,2896.5,64.6,319.5,2081.1,2911.7,284.2,49.1
0.179748,321.0,205.7,2090.4,381.6,2898.9,103.4,318.2,2082.6,2913.9,284.5,48.6
0.181748,329.9,253.7,2094.8,391.4,2916.3,142.3,316.8,2084.5,2916.1,284.7,49
0.183748,323.9,187.1,2101.5,430.2,2935.5,132.5,315.3,2086.7,2918.3,284.7,50
0.185748,313.7,124.4,2117.1,507.8,2941.1,108.8,313.8,2089.2,2920.5,284.6,51.3
0.187748,305.7,92.3,2122.4,586.4,2939.1,91.0,312.3,2091.8,2922.6,284.4,52.3
0.189748,300.5,78.8,2093.6,613.7,2935.0,76.7,310.7,2094.5,2924.7,284.2,52.9
0.191748,297.6,74.7,2039.1,583.4,2930.6,65.6,309,2097.3,2926.8,283.8,53.1
0.193748,298.1,77.9,1997.5,527.0,2926.0,62.9,307.4,2100.2,2928.7,283.4,52.8
0.195748,303.2,93.0,2006.1,482.7,2920.9,78.4,305.7,2103,2930.5,283,52.2
0.197748,314.4,131.3,2061.3,459.0,2915.0,128.8,304.1,2105.8,2932.2,282.5,51.3
0.199748,327.2,202.7,2112.1,462.3,2911.8,204.0,302.5,2108.5,2933.8,282,50.6
0.201748,322.3,281.7,2142.1,503.2,2920.3,214.9,300.9,2111.1,2935.2,281.5,50.4
0.203748,302.9,264.0,2170.4,565.3,2929.4,170.1,299.4,2113.5,2936.4,280.9,50.8
0.205748,295.1,190.0,2207.5,622.6,2931.7,133.4,297.9,2115.8,2937.5,280.4,51.5
0.207748,292.0,130.2,2231.0,653.5,2929.7,106.5,296.5,2117.8,2938.3,279.8,52.1
0.209748,290.3,95.4,2221.7,652.3,2926.5,84.4,295.2,2119.7,2938.9,279.3,52.4
0.211748,289.9,78.9,2166.9,613.6,2923.4,64.8,294,2121.3,2939.2,278.8,52.5
0.213748,291.1,79.2,2078.8,529.5,2921.7,52.0,292.9,2122.8,2939.3,278.2,52.3
0.215748,292.9,92.8,2014.0,460.3,2922.8,52.5,291.9,2124,2939.2,277.7,52.2
0.217748,292.6,106.7,2001.6,488.9,2925.6,70.5,291.1,2124.9,2938.8,277.3,52.1
0.219748,292.3,105.9,2024.6,626.5,2925.1,101.8,290.4,2125.7,2938,276.8,52.3
0.221748,295.4,100.1,2073.2,819.8,2918.8,134.0,289.8,2126.3,2937.1,276.4,52.7
0.223748,301.1,95.6,2153.7,882.7,2914.9,173.6,289.4,2126.6,2935.8,276,53.1
0.225748,306.2,86.7,2223.8,710.6,2924.1,217.9,289.1,2126.8,2934.2,275.6,53.6
0.227748,305.8,71.8,2249.3,518.7,2940.0,217.5,289,2126.8,2932.3,275.3,54.1
0.229748,299.6,54.9,2257.5,408.4,2948.3,176.0,289,2126.6,2930.2,275,54.6
0.231748,293.1,42.3,2254.8,371.3,2946.4,136.4,289.2,2126.3,2927.8,274.8,54.9
0.233748,289.4,36.0,2237.3,379.6,2939.3,109.3,289.6,2125.9,2925.1,274.6,55
0.235748,288.7,36.6,2196.8,420.3,2929.9,90.9,290.1,2125.4,2922.1,274.4,54.8
0.237748,290.9,46.6,2134.3,474.2,2919.8,78.4,290.7,2124.8,2918.9,274.3,54.4
0.239748,295.3,70.6,2078.3,528.7,2910.6,72.6,291.5,2124.2,2915.5,274.2,53.9
0.241748,297.1,98.7,2066.0,588.1,2907.0,72.7,292.4,2123.5,2911.8,274.2,53.4
0.243748,293.2,103.1,2081.6,630.4,2908.9,72.5,293.5,2122.7,2907.9,274.2,53.1
0.245748,288.7,88.9,2098.5,621.7,2913.6,72.4,294.7,2122,2903.9,274.2,53.1
0.247748,286.5,73.1,2101.1,534.8,2921.1,77.4,296,2121.2,2899.7,274.3,53.2
0.249748,287.5,61.6,2095.5,417.6,2930.6,95.3,297.4,2120.5,2895.3,274.4,53.6
0.251748,288.9,52.2,2095.7,345.0,2937.3,127.5,298.8,2119.8,2890.9,274.6,54
0.253748,288.1,43.9,2099.3,321.4,2933.3,156.6,300.4,2119.1,2886.3,274.8,54.4
0.255748,287.0,39.4,2098.8,325.3,2919.3,170.2,302,2118.5,2881.7,275.1,54.7
0.257748,288.1,41.6,2090.3,349.3,2899.8,176.5,303.7,2117.9,2877.1,275.4,54.8
0.259748,293.3,54.3,2075.9,400.0,2879.4,179.0,305.4,2117.4,2872.5,275.7,54.7
0.261748,301.6,77.7,2052.7,488.5,2857.7,177.5,307.1,2117,2867.9,276.1,54.6
0.263748,305.8,99.4,2014.4,627.9,2837.9,180.7,308.8,2116.6,2863.4,276.5,54.4
0.265748,300.9,102.7,1970.9,780.0,2827.3,192.6,310.5,2116.2,2858.9,276.9,54.3
0.267748,294.3,91.9,1939.3,861.1,2828.8,218.5,312.2,2115.9,2854.6,277.4,54.1
0.269748,292.3,84.1,1934.1,829.7,2840.2,256.7,313.8,2115.7,2850.4,277.9,53.9
0.271748,296.3,92.4,1965.9,803.1,2841.3,278.1,315.4,2115.5,2846.4,278.4,53.6
0.273748,306.8,123.6,2054.6,842.3,2828.0,247.8,316.9,2115.4,2842.7,278.9,53.1
0.275748,322.7,162.6,2178.4,814.2,2829.4,203.2,318.3,2115.3,2839.1,279.4,52.9
0.277748,334.3,168.5,2277.1,698.2,2840.4,165.8,319.7,2115.2,2835.8,279.9,52.9
0.279748,330.1,135.5,2326.4,613.6,2846.6,134.5,320.9,2115.2,2832.8,280.4,53.3
0.281748,321.2,102.4,2348.4,597.9,2845.4,109.6,322,2115.1,2830.1,280.9,53.8
0.283748,314.8,83.3,2353.9,649.3,2839.7,90.1,323,2115.1,2827.7,281.4,54.1
0.285748,311.5,76.1,2334.9,774.7,2831.8,71.0,323.8,2115.2,2825.6,281.9,54.2
0.287748,312.1,79.9,2260.3,935.0,2824.5,51.8,324.5,2115.2,2823.9,282.4,53.8
0.289748,317.3,92.4,2116.8,1007.5,2817.7,36.8,325.1,2115.2,2822.6,282.8,53.1
0.291748,329.6,115.7,1983.6,976.6,2809.0,30.6,325.5,2115.2,2821.6,283.3,51.9
0.293748,356.1,164.0,1931.1,1010.1,2798.9,35.9,325.7,2115.2,2821.1,283.7,50.3
0.295748,413.1,249.1,1952.4,1149.6,2789.6,57.8,325.8,2115.2,2820.9,284.1,48.5
