time,f1,b1,f2,b2,f3,b3,f1p,f2p,f3p,f0,intensity
0.025098,398.8,191.3,1223.8,572.6,2268.4,459.2,401.2,1140.8,2410,174.2,71.2
0.027098,398.2,176.7,1142.3,367.6,2330.1,441.6,402.1,1142.7,2410.5,174,71.9
0.029098,399.8,161.9,1117.0,269.6,2411.9,463.0,403.6,1145.7,2411.1,173.7,72.5
0.031098,406.1,168.0,1121.6,248.6,2483.1,504.2,405.8,1149.9,2412.1,173.4,73.1
0.033098,416.6,189.8,1142.0,267.7,2536.5,549.3,408.6,1155.2,2413.5,173.1,73.6
0.035098,429.8,213.8,1166.8,293.2,2572.8,579.4,412.3,1161.6,2415.2,172.8,74
0.037098,441.8,231.2,1186.2,300.6,2575.9,596.7,416.9,1168.9,2417.3,172.5,74.4
0.039098,449.0,240.0,1195.8,282.4,2530.6,604.5,422.5,1177.1,2419.8,172.1,74.5
0.041098,452.1,241.9,1198.4,250.0,2454.6,574.3,429.1,1186,2422.8,171.7,74.6
0.043098,454.4,241.1,1199.0,219.5,2393.9,516.7,436.9,1195.6,2426.3,171.4,74.6
0.045098,457.6,241.7,1200.6,195.4,2356.9,463.9,446,1205.7,2430.4,171,74.5
0.047098,461.6,246.6,1204.9,180.3,2338.6,432.7,456.3,1216.3,2435,170.6,74.3
0.049098,465.7,256.9,1212.2,175.2,2333.6,426.4,468,1227.2,2440.2,170.2,74
0.051098,469.5,273.7,1222.7,180.9,2340.9,447.2,481,1238.4,2446.1,169.8,73.7
0.053098,473.1,296.0,1236.6,195.3,2358.0,490.3,495.3,1249.7,2452.6,169.4,73.3
0.055098,477.0,318.9,1253.0,210.5,2378.1,540.7,511,1261,2459.7,168.9,72.9
0.057098,481.8,344.2,1271.5,222.2,2399.7,592.7,527.9,1272.3,2467.4,168.5,72.5
0.059098,488.4,378.2,1288.3,230.2,2424.7,641.8,545.9,1283.6,2475.6,168.1,72.2
0.061098,499.2,429.7,1298.6,237.1,2453.8,687.9,564.9,1294.7,2484.4,167.7,71.8
0.063098,517.1,503.2,1300.5,244.3,2483.5,741.9,584.8,1305.6,2493.7,167.3,71.6
0.065098,544.8,592.1,1297.4,256.7,2516.0,818.2,605.3,1316.3,2503.5,166.9,71.3
0.067098,586.1,668.2,1294.2,283.7,2553.3,898.3,626.2,1326.7,2513.5,166.5,71.1
0.069098,641.2,696.1,1292.2,336.3,2576.6,953.2,647.3,1336.9,2523.9,166.1,70.9
0.071098,712.9,666.0,1293.7,439.4,2581.6,1007.6,668.4,1346.9,2534.3,165.8,70.7
0.073098,779.7,570.0,1319.0,586.7,2592.1,1079.5,689.1,1356.6,2544.9,165.4,70.6
0.075098,806.3,457.7,1378.3,654.6,2622.3,1131.1,709.4,1366,2555.5,165.1,70.5
0.077098,809.1,384.8,1416.6,598.9,2637.0,1118.6,728.8,1375.3,2565.9,164.7,70.5
0.079098,807.5,333.5,1425.8,512.1,2613.2,1054.5,747.3,1384.3,2576,164.4,70.5
0.081098,808.0,289.6,1429.2,436.9,2599.0,948.4,764.4,1393.1,2585.9,164.1,70.6
0.083098,811.6,250.2,1435.6,371.3,2609.8,817.9,780.2,1401.7,2595.3,163.9,70.6
0.085098,815.2,221.3,1441.4,319.4,2624.7,722.8,794.4,1410.2,2604.1,163.6,70.7
0.087098,816.2,201.5,1445.7,284.4,2648.8,688.3,806.9,1418.5,2612.3,163.3,70.7
0.089098,815.0,186.2,1451.5,264.9,2683.2,694.7,817.6,1426.6,2619.9,163.1,70.8
0.091098,812.7,172.8,1458.3,254.1,2700.0,723.1,826.5,1434.6,2626.7,162.9,70.9
0.093098,809.8,162.1,1462.3,245.2,2668.2,737.5,833.5,1442.3,2632.6,162.7,71
0.095098,806.7,153.3,1463.0,235.3,2613.5,711.1,838.8,1449.9,2637.7,162.6,71.2
0.097098,805.3,146.0,1462.4,223.8,2577.6,658.1,842.4,1457.3,2642,162.4,71.4
0.099098,806.3,140.1,1462.9,210.2,2573.3,589.1,844.4,1464.5,2645.3,162.3,71.6
0.101098,809.0,135.5,1464.8,195.6,2582.3,510.6,844.9,1471.4,2647.7,162.2,71.7
0.103098,812.0,130.8,1467.3,181.7,2586.7,448.2,844.3,1478,2649.3,162.1,71.9
0.105098,814.9,125.3,1470.5,169.3,2590.9,417.6,842.6,1484.4,2650,162,72
0.107098,818.0,120.3,1475.0,160.1,2603.4,412.1,840.2,1490.4,2649.8,161.9,72.2
0.109098,821.6,116.7,1480.7,154.1,2625.3,415.3,837.2,1496.1,2648.9,161.9,72.3
0.111098,824.6,114.6,1484.5,150.5,2643.3,421.6,834,1501.5,2647.2,161.8,72.4
0.113098,826.2,113.2,1484.5,148.0,2645.9,447.0,830.7,1506.5,2644.8,161.8,72.4
0.115098,826.4,111.3,1482.9,146.8,2630.2,496.7,827.5,1511.3,2641.8,161.8,72.5
0.117098,826.4,108.9,1483.8,147.3,2605.1,545.1,824.8,1515.7,2638.2,161.8,72.6
0.119098,827.7,108.1,1488.8,150.8,2593.4,581.1,822.7,1520,2634,161.8,72.6
0.121098,830.9,110.6,1497.5,157.9,2603.2,623.6,821.3,1524.1,2629.4,161.8,72.6
0.123098,835.5,115.9,1506.6,165.9,2629.7,678.7,820.7,1528,2624.3,161.9,72.6
0.125098,840.3,123.0,1514.2,173.6,2661.8,751.7,821.1,1532,2618.8,161.9,72.6
0.127098,844.6,130.1,1521.8,181.7,2686.1,844.8,822.4,1536.2,2613,162,72.5
0.129098,847.9,133.1,1532.0,188.9,2685.0,935.8,824.6,1540.5,2606.9,162,72.5
0.131098,850.2,130.9,1545.8,195.8,2648.0,997.9,827.7,1545.2,2600.4,162.1,72.5
0.133098,852.4,126.6,1561.5,202.1,2599.7,1025.3,831.6,1550.4,2593.7,162.2,72.5
0.135098,855.1,121.9,1578.1,202.9,2574.5,1044.3,836.1,1556.3,2586.7,162.2,72.5
0.137098,858.1,117.9,1593.5,193.5,2579.0,1076.2,841,1563,2579.3,162.3,72.5
0.139098,860.6,114.6,1607.1,178.5,2584.1,1115.6,846.1,1570.7,2571.8,162.4,72.6
0.141098,862.2,112.5,1617.8,165.8,2571.0,1144.0,851.2,1579.5,2563.9,162.5,72.7
0.143098,862.8,112.3,1626.2,157.9,2546.9,1157.4,856.1,1589.5,2555.7,162.6,72.7
0.145098,862.1,114.1,1634.4,150.7,2535.2,1174.1,860.3,1600.9,2547.1,162.7,72.8
0.147098,859.5,115.9,1644.1,138.3,2547.6,1205.3,863.8,1613.7,2538.3,162.8,72.8
0.149098,855.0,116.3,1653.2,122.1,2571.6,1234.7,866.3,1628.1,2529.1,163,72.9
0.151098,849.2,117.2,1662.0,107.9,2585.6,1249.8,867.4,1644.2,2519.5,163.1,72.9
0.153098,843.3,119.8,1671.5,99.1,2577.5,1233.5,867,1661.8,2509.6,163.2,72.9
0.155098,838.4,122.7,1682.2,96.2,2541.6,1172.2,865,1681.1,2499.3,163.4,72.9
0.157098,834.2,125.1,1695.4,98.6,2484.1,1097.2,861.1,1702,2488.7,163.5,73
0.159098,829.5,126.2,1714.2,104.7,2410.3,1041.4,855.3,1724.4,2477.7,163.6,73
0.161098,824.1,126.6,1739.4,110.1,2346.7,1024.5,847.5,1748.2,2466.5,163.8,73
0.163098,818.4,128.9,1770.1,109.1,2328.9,1067.5,837.9,1773.3,2455,163.9,73.1
0.165098,812.2,131.9,1799.6,101.0,2366.9,1146.1,826.3,1799.5,2443.3,164.1,73.1
0.167098,804.9,131.3,1821.7,94.5,2425.7,1150.5,813,1826.5,2431.6,164.2,73.2
0.169098,796.8,127.6,1839.5,95.0,2461.8,1028.3,798,1854.1,2419.7,164.4,73.2
0.171098,788.8,123.9,1857.7,99.8,2466.5,867.3,781.8,1882,2407.9,164.5,73.3
0.173098,779.7,120.5,1879.7,106.6,2440.2,747.8,764.4,1910,2396.3,164.7,73.2
0.175098,768.1,117.6,1904.2,116.8,2402.5,683.9,746.3,1937.8,2384.9,164.8,73.2
0.177098,754.1,115.2,1930.3,130.2,2375.3,635.0,727.7,1964.9,2373.8,165,73.1
0.179098,738.6,112.4,1954.8,146.4,2359.2,575.9,709,1991.1,2363.3,165.1,73
0.181098,721.6,110.0,1973.9,171.9,2336.8,494.8,690.7,2016,2353.3,165.3,72.8
0.183098,702.3,109.1,1987.1,213.6,2308.6,406.0,673,2039.3,2344,165.4,72.6
0.185098,679.4,107.5,1997.2,274.5,2286.3,321.5,656.3,2060.7,2335.4,165.6,72.4
0.187098,655.7,103.5,2007.5,351.2,2275.6,256.0,641,2080,2327.8,165.7,72.2
0.189098,633.8,98.3,2028.0,454.3,2271.3,208.6,627.5,2096.7,2321.2,165.9,72.1
0.191098,615.5,94.0,2077.5,591.9,2266.6,178.4,616,2110.8,2315.7,166,72
0.193098,599.9,91.9,2176.9,739.0,2259.0,160.8,606.8,2121.9,2311.3,166.1,71.9
0.195098,584.2,93.7,2252.7,148.3,2313.2,812.6,600,2130,2308.1,166.2,71.8
0.197098,566.7,101.0,2249.7,143.0,2421.4,759.6,595.9,2134.9,2306.2,166.4,71.6
0.199098,544.1,116.1,2246.2,150.5,2481.2,650.4,594.5,2136.5,2305.6,166.5,71.5
