time,f1,b1,f2,b2,f3,b3,f1p,f2p,f3p,f0,intensity
0.025621,491.8,154.1,1670.2,149.8,2585.1,289.5,483.6,1657.6,2576.9,77.9,63.5
0.027621,487.2,148.8,1687.7,169.5,2600.0,255.7,482.8,1674,2575.9,77.9,63.6
0.029621,482.8,150.8,1700.5,198.0,2599.2,220.0,481.3,1700.8,2574.3,77.9,63.8
0.031621,478.2,154.3,1720.8,245.9,2586.8,183.5,479.3,1737.1,2572.2,77.9,63.9
0.033621,473.7,147.3,1757.9,314.0,2571.6,151.3,476.8,1781.7,2569.7,77.9,64
0.035621,468.6,122.8,1821.8,403.9,2559.1,126.7,473.8,1833.2,2567.1,77.9,64.2
0.037621,464.1,91.9,1899.4,487.0,2550.7,114.0,470.4,1889.9,2564.6,78,64.4
0.039621,460.4,66.2,1969.0,541.4,2544.7,108.0,466.7,1950.1,2562.3,78.1,64.5
0.041621,457.5,50.4,2010.4,556.7,2541.4,105.4,462.7,2011.9,2560.6,78.1,64.6
0.043621,455.2,39.9,2046.8,552.7,2541.2,106.7,458.5,2073.5,2559.6,78.2,64.7
0.045621,453.9,31.8,2107.8,545.5,2544.1,116.1,454.2,2133.1,2559.4,78.3,64.7
0.047621,452.6,26.0,2191.8,526.1,2549.6,135.3,449.7,2189,2560.4,78.4,64.5
0.049621,449.8,22.2,2274.6,483.1,2556.5,159.7,445.2,2239.8,2562.5,78.6,64.3
0.051621,446.2,21.4,2323.8,450.5,2561.5,174.3,440.7,2284.3,2565.9,78.8,64
0.053621,441.7,23.2,2344.6,444.6,2565.3,172.6,436.2,2321.4,2570.6,78.9,63.6
0.055621,435.5,27.3,2347.1,454.2,2571.5,159.3,431.8,2350.7,2576.5,79.1,63.1
0.057621,428.8,32.9,2347.4,475.5,2578.8,148.4,427.5,2371.6,2583.7,79.3,62.5
0.059621,423.3,40.1,2361.8,524.8,2585.5,149.3,423.3,2384.4,2591.9,79.6,62
0.061621,419.9,48.1,2390.4,585.2,2594.0,164.9,419.2,2389.1,2601.1,79.8,61.5
0.063621,417.7,56.0,2397.4,584.9,2620.5,180.7,415.2,2386.5,2610.9,80.1,61.1
0.065621,416.3,62.0,2364.4,528.7,2655.1,153.0,411.3,2377.4,2621.3,80.3,61
0.067621,413.8,66.0,2342.1,473.6,2670.6,111.7,407.4,2362.7,2631.9,80.6,61
0.069621,406.9,66.8,2335.7,436.9,2675.1,82.8,403.7,2343.8,2642.6,80.9,61.1
0.071621,396.3,64.7,2334.2,424.3,2676.9,65.1,399.9,2321.8,2653.1,81.2,61.2
0.073621,384.5,61.9,2329.1,428.6,2678.5,52.2,396.3,2298,2663.1,81.5,61.3
0.075621,376.4,61.3,2312.8,445.9,2679.0,43.6,392.6,2273.9,2672.5,81.8,61.3
0.077621,374.0,64.2,2273.5,469.4,2677.7,37.4,389,2250.6,2681.1,82.1,61.2
0.079621,377.5,66.1,2218.5,472.2,2675.4,34.1,385.4,2229.1,2688.9,82.3,61.1
0.081621,383.0,57.6,2172.4,445.7,2673.4,33.7,381.8,2210.5,2695.7,82.6,61.1
0.083621,385.1,41.9,2150.8,415.6,2673.5,36.2,378.3,2195.4,2701.5,82.9,61.2
0.085621,382.8,31.9,2153.2,409.1,2677.0,42.0,374.8,2184.4,2706.4,83.2,61.4
0.087621,377.7,28.4,2170.6,418.6,2684.7,52.4,371.4,2177.8,2710.4,83.4,61.6
0.089621,371.4,29.0,2188.0,419.3,2695.9,64.6,368.1,2175.5,2713.7,83.6,61.8
0.091621,366.4,30.8,2194.3,407.6,2708.3,73.1,364.9,2177.5,2716.4,83.9,62
0.093621,366.0,30.5,2185.4,412.4,2715.4,73.3,361.9,2183.2,2718.6,84.1,62.1
0.095621,367.5,28.6,2170.0,455.3,2715.6,70.0,359.1,2192.3,2720.6,84.3,62.3
0.097621,365.0,28.4,2174.1,527.8,2716.1,72.8,356.6,2204,2722.6,84.5,62.5
0.099621,357.6,31.0,2220.1,544.9,2725.3,85.8,354.3,2217.5,2724.7,84.7,62.7
0.101621,347.6,34.6,2267.8,473.4,2743.5,92.6,352.3,2231.9,2727,84.9,62.8
0.103621,341.9,37.3,2289.1,415.6,2754.8,80.5,350.6,2246.5,2729.8,85,62.9
0.105621,343.2,36.6,2297.7,401.8,2756.6,63.0,349.2,2260.5,2733.2,85.2,63
0.107621,348.0,32.6,2301.1,416.2,2755.2,47.6,348.1,2273.1,2737.1,85.3,63.1
0.109621,349.6,28.7,2302.8,439.2,2755.8,38.3,347.4,2283.7,2741.6,85.5,63.2
0.111621,346.1,26.6,2303.1,455.6,2760.5,34.7,346.9,2291.9,2746.6,85.6,63.4
0.113621,341.9,26.1,2298.4,460.4,2767.4,35.4,346.8,2297.4,2752.1,85.8,63.5
0.115621,341.9,26.0,2288.3,472.3,2771.2,36.8,346.8,2300,2757.9,85.9,63.6
0.117621,346.3,25.8,2274.0,502.2,2768.2,36.2,347.1,2299.8,2763.9,86,63.7
0.119621,351.4,25.5,2257.2,532.2,2761.9,33.7,347.5,2297,2769.7,86.1,63.7
0.121621,353.4,25.3,2247.2,537.0,2758.8,33.1,347.9,2292,2775.2,86.2,63.7
0.123621,350.0,25.2,2256.7,507.5,2763.3,38.7,348.4,2285.2,2780.1,86.4,63.8
0.125621,345.3,24.9,2271.3,469.0,2773.3,49.6,348.9,2277.2,2784.1,86.5,63.8
0.127621,344.8,25.2,2275.3,463.9,2778.3,58.3,349.3,2268.7,2787,86.6,63.9
0.129621,347.9,26.7,2269.3,494.3,2773.6,59.9,349.6,2260.3,2788.7,86.7,64
0.131621,351.9,29.2,2253.2,527.2,2765.6,55.1,349.7,2252.8,2788.8,86.7,64.1
0.133621,352.3,31.2,2237.5,521.1,2762.6,52.1,349.6,2246.6,2787.3,86.8,64.2
0.135621,348.0,31.4,2231.4,477.3,2765.1,55.1,349.2,2242.3,2784.1,86.9,64.3
0.137621,344.5,29.9,2233.2,439.0,2769.3,60.9,348.6,2240.4,2779.1,87,64.4
0.139621,344.8,29.0,2238.7,431.8,2770.3,61.1,347.7,2241.1,2772.5,87.1,64.5
0.141621,347.6,29.9,2249.6,450.7,2767.6,54.2,346.6,2244.5,2764.4,87.1,64.5
0.143621,350.0,32.4,2271.5,477.4,2764.8,49.5,345.3,2250.6,2754.8,87.2,64.6
0.145621,348.5,35.6,2302.6,498.5,2763.1,54.3,343.8,2259.3,2744.1,87.3,64.6
0.147621,343.7,36.8,2322.3,506.3,2761.3,70.8,342.1,2270.1,2732.6,87.3,64.7
0.149621,340.1,36.4,2324.6,517.0,2755.9,99.4,340.4,2282.7,2720.6,87.3,64.7
0.151621,339.6,37.0,2317.1,547.8,2743.6,130.6,338.6,2296.5,2708.4,87.4,64.7
0.153621,340.4,39.2,2303.2,591.0,2724.4,150.9,336.8,2310.8,2696.5,87.4,64.7
0.155621,340.4,41.2,2291.2,614.6,2702.2,151.0,335.1,2325,2685.2,87.5,64.6
0.157621,337.5,39.7,2301.6,592.8,2683.6,137.8,333.6,2338.5,2674.9,87.5,64.6
0.159621,332.7,34.6,2334.2,545.2,2668.7,125.4,332.2,2350.5,2666,87.5,64.5
0.161621,329.2,31.4,2361.6,526.0,2654.4,119.6,331.1,2360.5,2658.7,87.5,64.4
0.163621,326.8,32.4,2374.3,555.0,2636.0,115.6,330.3,2368.1,2653.3,87.5,64.3
0.165621,325.0,37.7,2371.5,612.8,2616.4,111.7,329.8,2372.7,2650,87.5,64
0.167621,323.3,45.8,2349.2,670.3,2597.6,109.7,329.6,2374.3,2648.8,87.5,63.7
