time,f1,b1,f2,b2,f3,b3,f1p,f2p,f3p,f0,intensity
0.025798,402.5,181.9,2524.8,111.2,3025.8,634.0,422.6,2530.2,2966.9,0,62.4
0.027798,408.4,170.9,2513.2,126.9,2931.2,614.8,424.3,2529,2969.3,0,63.3
0.029798,416.3,160.3,2503.1,133.6,2887.2,557.2,427.2,2527,2973.1,0,63.9
0.031798,426.0,146.1,2503.6,121.7,2888.8,537.6,431.1,2524.4,2978.5,0,64.5
0.033798,438.1,132.0,2509.7,102.4,2921.9,531.5,436.1,2521.1,2985.2,0,65.1
0.035798,450.9,120.1,2513.7,89.9,2969.0,525.5,442.1,2517.3,2993.1,0,65.6
0.037798,459.9,108.9,2513.2,84.8,3002.3,525.9,448.8,2513.3,3002.1,0,66
0.039798,465.6,98.4,2512.7,74.8,3024.5,508.2,456.4,2509,3012,0,66.3
0.041798,471.6,91.7,2513.7,59.4,3045.7,454.2,464.5,2504.7,3022.6,0,66.4
0.043798,480.9,96.8,2513.0,48.2,3070.7,391.1,473.2,2500.6,3033.7,0,66.3
0.045798,495.9,126.9,2506.2,50.0,3096.2,356.1,482.2,2496.8,3045.2,0,66.1
0.047798,513.3,177.5,2495.9,58.9,3112.0,344.3,491.5,2493.4,3056.8,0,65.9
0.049798,524.6,211.8,2491.8,59.4,3119.7,333.1,500.8,2490.7,3068.3,0,65.5
0.051798,528.3,210.9,2494.2,51.0,3122.7,319.6,510.1,2488.8,3079.5,0,65
0.053798,527.8,186.0,2499.1,39.9,3123.3,308.4,519.2,2487.7,3090.1,0,64.4
0.055798,525.2,151.2,2504.2,30.1,3122.9,309.1,528,2487.6,3100.1,0,63.6
0.057798,522.4,116.8,2508.0,24.2,3123.0,350.4,536.3,2488.5,3109.3,0,62.6
0.059798,522.7,102.1,2509.3,27.9,3127.8,479.9,544,2490.5,3117.4,0,61.7
0.061798,529.2,143.1,2507.2,58.9,3128.5,537.5,551,2493.6,3124.4,0,61.3
0.063798,538.8,254.9,2509.7,87.1,3130.8,497.0,557.2,2497.7,3130.1,0,61.6
0.065798,545.8,403.1,2516.1,80.6,3149.6,455.8,562.4,2502.7,3134.5,0,62.2
0.067798,548.9,509.0,2520.3,68.2,3162.8,424.7,566.7,2508.7,3137.5,0,62.9
0.069798,552.5,524.8,2523.3,56.3,3168.1,402.1,569.9,2515.4,3139.1,0,63.3
0.071798,557.1,470.6,2526.0,45.3,3168.7,385.6,572,2522.8,3139.3,0,63.3
0.073798,560.5,389.8,2529.4,35.5,3166.7,375.5,573,2530.7,3138.2,0,62.9
0.075798,563.2,317.4,2533.4,27.8,3161.6,378.9,572.8,2538.9,3135.7,0,62
0.077798,569.2,282.3,2537.8,24.1,3146.8,426.8,571.5,2547.2,3132,0,60.7
0.079798,581.2,299.0,2541.5,28.6,3090.5,608.2,569.1,2555.6,3127.1,0,59
0.081798,590.7,313.0,2544.7,44.8,2916.4,917.3,565.5,2563.7,3121.3,0,57
0.083798,591.2,272.4,2544.2,64.2,2816.7,1018.7,560.9,2571.5,3114.6,0,55
0.085798,586.7,218.0,2535.5,80.2,2970.7,905.6,555.2,2578.7,3107.2,0,53.8
0.087798,579.3,211.8,2548.7,103.6,3080.8,580.3,548.7,2585.3,3099.2,0,54.1
0.089798,566.8,329.7,2593.2,102.1,3119.5,462.6,541.2,2591.1,3090.9,0,55.7
0.091798,536.6,483.0,2610.6,85.8,3141.4,424.1,533.1,2596.1,3082.4,0,57.6
0.093798,513.0,503.1,2613.8,75.6,3143.6,412.3,524.2,2600.2,3073.9,0,59.2
0.095798,502.3,456.1,2614.4,67.1,3140.0,406.5,514.8,2603.3,3065.6,0,60.4
0.097798,495.6,399.7,2615.1,58.3,3136.0,397.1,504.9,2605.6,3057.7,0,61.2
0.099798,489.3,340.0,2616.1,49.4,3131.9,386.3,494.7,2606.9,3050.2,0,61.5
0.101798,481.7,275.5,2617.6,41.4,3125.8,379.8,484.2,2607.5,3043.4,0,61.4
0.103798,472.2,211.0,2618.9,36.7,3110.4,389.0,473.6,2607.4,3037.3,0,61.2
0.105798,460.6,164.7,2617.2,44.3,3058.9,418.5,463,2606.7,3032.2,0,60.9
0.107798,446.7,156.7,2598.5,89.4,2989.3,362.9,452.5,2605.7,3028,0,60.9
0.109798,430.8,170.0,2558.8,140.3,2986.3,267.5,442.2,2604.4,3024.8,0,61.2
0.111798,417.9,172.6,2546.9,149.2,2993.0,242.0,432.1,2603.2,3022.6,0,61.7
0.113798,409.9,163.8,2558.6,141.5,2996.2,249.1,422.4,2602.1,3021.6,0,62.2
0.115798,405.0,154.9,2579.3,127.9,3004.3,265.3,413.1,2601.3,3021.5,0,62.8
0.117798,400.8,160.0,2600.4,116.1,3018.8,282.6,404.3,2601.2,3022.5,0,63.3
0.119798,394.8,189.8,2615.1,114.8,3030.1,295.7,396.1,2601.7,3024.5,0,63.8
0.121798,388.4,219.2,2625.3,114.7,3034.0,303.4,388.4,2603.2,3027.3,0,64.3
0.123798,385.6,219.5,2636.0,106.8,3036.6,310.5,381.4,2605.7,3030.9,0,64.8
0.125798,384.7,199.9,2647.6,94.9,3042.5,319.0,375,2609.3,3035.1,0,65.3
0.127798,381.6,176.0,2658.4,85.8,3051.7,329.2,369.2,2614,3039.8,0,65.8
0.129798,374.5,155.7,2666.2,84.2,3058.3,338.7,364.2,2620,3044.9,171.5,66.3
0.131798,365.4,140.0,2669.9,86.3,3059.0,338.9,359.7,2627.1,3050.1,171.7,66.9
0.133798,356.6,126.9,2670.0,85.7,3058.7,329.0,355.9,2635.4,3055.4,171.9,67.4
0.135798,348.9,113.9,2665.9,84.4,3057.7,321.2,352.8,2644.6,3060.5,172.1,67.9
0.137798,343.7,99.3,2659.6,86.0,3054.9,319.0,350.2,2654.6,3065.3,172.4,68.4
0.139798,341.2,84.1,2660.1,90.1,3050.2,313.5,348.1,2665.3,3069.5,172.6,68.9
0.141798,340.5,70.9,2675.3,92.2,3045.9,305.5,346.6,2676.3,3073.1,172.8,69.4
0.143798,340.8,61.3,2697.6,87.5,3048.0,301.8,345.5,2687.5,3075.8,173.1,69.9
0.145798,342.5,55.4,2713.6,81.0,3053.4,294.7,344.7,2698.4,3077.6,173.4,70.3
0.147798,345.2,52.9,2718.6,79.3,3057.0,278.0,344.4,2708.8,3078.2,173.6,70.6
0.149798,348.3,51.6,2713.1,81.2,3062.3,256.2,344.3,2718.3,3077.6,173.9,70.9
0.151798,350.9,49.7,2701.1,82.2,3072.5,239.5,344.5,2726.6,3075.7,174.1,71.1
0.153798,352.4,47.0,2689.8,82.0,3082.2,234.0,344.9,2733.3,3072.4,174.4,71.2
0.155798,352.5,44.5,2684.9,84.1,3081.6,238.0,345.4,2738.1,3067.7,174.6,71.2
0.157798,351.6,42.8,2685.7,90.9,3068.7,244.5,346,2740.7,3061.4,174.8,71.1
0.159798,350.6,42.2,2687.3,100.7,3050.6,248.7,346.7,2740.9,3053.7,175,71
0.161798,350.3,42.3,2685.2,105.9,3035.9,248.9,347.3,2738.2,3044.5,175.2,70.9
0.163798,350.8,42.6,2680.0,100.2,3027.2,246.2,347.9,2732.7,3033.9,175.4,70.7
0.165798,351.3,42.5,2674.7,91.7,3019.3,241.4,348.5,2724.1,3021.9,175.5,70.5
0.167798,351.0,41.9,2669.3,87.3,3012.5,232.0,349,2712.4,3008.6,175.6,70.3
0.169798,350.0,41.4,2663.0,84.7,3011.4,217.4,349.3,2697.5,2994.1,175.7,70.2
0.171798,348.3,41.5,2657.6,80.2,3011.6,204.6,349.6,2679.5,2978.6,175.7,70.1
0.173798,346.3,41.5,2656.4,73.7,3001.6,200.7,349.7,2658.5,2962.1,175.7,70
0.175798,344.2,41.2,2657.0,68.8,2974.6,202.8,349.7,2634.7,2944.9,175.7,69.9
0.177798,342.4,40.4,2654.1,68.3,2938.5,200.9,349.5,2608.3,2927.2,175.7,69.9
0.179798,341.5,39.5,2644.8,71.6,2907.9,194.0,349.2,2579.7,2909,175.6,69.9
0.181798,341.5,39.1,2627.6,78.0,2886.4,185.6,348.8,2549.1,2890.6,175.5,69.9
0.183798,341.9,39.3,2599.7,87.7,2866.3,170.7,348.2,2517.2,2872.2,175.3,70
0.185798,342.3,39.4,2559.5,95.9,2844.2,145.6,347.6,2484.2,2853.9,175.2,70
0.187798,342.6,38.3,2515.5,95.0,2824.3,118.9,346.9,2450.7,2836.1,175,70.1
0.189798,343.0,36.5,2476.5,88.8,2807.5,97.5,346.2,2417.3,2818.8,174.8,70.2
0.191798,343.7,35.2,2440.0,82.6,2792.4,81.1,345.4,2384.4,2802.3,174.6,70.2
0.193798,344.4,34.7,2403.0,76.0,2779.7,69.5,344.6,2352.7,2786.7,174.4,70.2
0.195798,344.8,35.3,2367.3,70.0,2770.1,63.8,343.8,2322.6,2772.3,174.2,70.2
0.197798,345.0,37.3,2332.6,67.1,2761.7,63.6,343,2294.6,2759.1,173.9,70.1
0.199798,345.1,39.8,2296.9,67.4,2752.8,65.9,342.3,2269.3,2747.4,173.7,69.9
0.201798,345.0,41.6,2260.1,70.5,2743.4,67.4,341.7,2247.1,2737.3,173.4,69.6
0.203798,344.8,43.2,2220.5,77.7,2733.3,66.8,341.1,2228.3,2728.8,173.2,69.3
0.205798,344.6,45.5,2174.6,89.9,2722.7,65.1,340.7,2213.3,2722.1,172.9,69
0.207798,344.2,48.7,2122.9,105.1,2713.6,65.1,340.4,2202.5,2717.3,172.7,68.7
0.209798,343.4,52.9,2073.5,122.1,2707.0,70.9,340.2,2195.9,2714.4,172.5,68.4
0.211798,342.1,57.4,2034.1,143.8,2701.5,86.5,340.1,2193.6,2713.4,172.3,68.3
