time,f1,b1,f2,b2,f3,b3,f1p,f2p,f3p,f0,intensity
0.025982,343.6,71.8,2208.3,246.7,2695.8,81.2,340.3,2285.4,2719,166.7,67.2
0.027982,339.4,60.8,2266.7,191.8,2705.4,94.0,339.7,2291.5,2721.1,166.7,67.3
0.029982,337.3,56.3,2306.5,160.8,2715.8,107.7,338.8,2301.6,2724.7,166.7,67.4
0.031982,335.7,54.0,2334.8,141.4,2727.5,119.3,337.6,2315.3,2730.1,166.7,67.5
0.033982,334.0,50.8,2354.4,128.2,2741.2,123.8,336.1,2332.2,2737.8,166.6,67.5
0.035982,332.5,46.0,2372.6,118.8,2758.1,122.9,334.5,2351.7,2748,166.6,67.6
0.037982,331.5,41.3,2392.2,114.3,2775.6,122.0,332.9,2373.4,2761.2,166.6,67.7
0.039982,331.0,37.7,2412.9,115.5,2792.8,126.7,331.4,2396.6,2777.7,166.6,67.8
0.041982,330.6,34.2,2435.1,123.4,2813.0,142.1,330,2420.6,2797.8,166.6,67.9
0.043982,330.2,30.7,2456.7,136.6,2833.7,169.4,328.8,2444.9,2821.7,166.6,68
0.045982,330.0,27.7,2478.5,147.9,2854.5,210.7,328,2468.8,2849.5,166.6,68
0.047982,329.8,25.8,2497.7,146.1,2878.8,262.3,327.5,2491.7,2881,166.7,68.1
0.049982,329.7,24.9,2513.6,132.3,2912.4,317.6,327.4,2513.3,2915.9,166.7,68.1
0.051982,329.7,25.1,2528.2,118.3,2948.1,363.9,327.7,2532.9,2953.8,166.7,68.1
0.053982,330.1,26.3,2543.4,107.8,2982.0,399.3,328.4,2550.3,2994,166.8,68.1
0.055982,330.6,28.1,2558.7,96.9,3022.6,425.8,329.4,2565.3,3035.8,166.8,68.1
0.057982,331.1,29.1,2571.9,85.2,3076.6,441.4,330.6,2577.7,3078.2,166.9,68.1
0.059982,331.5,29.0,2584.6,73.6,3147.4,441.2,332.1,2587.4,3120.4,167,68.2
0.061982,331.9,29.1,2594.2,66.2,3208.7,428.1,333.7,2594.5,3161.2,167,68.2
0.063982,332.9,31.1,2597.5,65.4,3242.4,425.0,335.4,2599.2,3199.7,167.1,68.2
0.065982,334.6,36.1,2593.0,72.4,3244.8,447.3,337,2601.6,3235,167.2,68.3
0.067982,336.4,41.9,2584.1,84.1,3230.5,483.5,338.5,2602,3266.3,167.3,68.3
0.069982,338.0,47.0,2575.8,94.5,3216.7,520.9,339.9,2600.6,3292.8,167.4,68.4
0.071982,339.5,51.0,2573.3,97.2,3217.7,552.7,341,2597.8,3314.3,167.5,68.5
0.073982,341.1,55.5,2579.3,91.9,3247.2,584.2,341.8,2593.8,3330.3,167.6,68.5
0.075982,342.5,59.8,2591.7,81.5,3314.9,599.9,342.5,2589,3340.9,167.7,68.6
0.077982,343.4,61.5,2603.6,70.9,3392.2,567.0,342.9,2583.7,3346.3,167.8,68.7
0.079982,343.7,59.7,2608.9,64.5,3436.3,507.4,343.1,2578.1,3346.8,167.9,68.8
0.081982,343.7,57.6,2604.0,65.5,3434.8,474.1,343.2,2572.5,3343.1,168,68.9
0.083982,343.9,57.4,2590.1,74.3,3405.4,475.6,343.2,2566.9,3335.9,168.2,69
0.085982,344.2,58.1,2573.0,87.6,3366.9,500.2,343.3,2561.6,3326.1,168.3,69
0.087982,344.5,57.7,2557.5,101.5,3320.0,531.5,343.4,2556.6,3314.5,168.4,69.1
0.089982,345.1,55.9,2546.1,111.7,3267.4,541.7,343.8,2552.1,3302,168.5,69.1
0.091982,345.9,54.3,2539.6,114.7,3231.0,523.3,344.5,2547.9,3289.4,168.5,69.1
0.093982,347.1,54.1,2537.8,111.5,3221.6,499.2,345.4,2544.1,3277.6,168.6,69.1
0.095982,348.5,56.0,2538.1,105.9,3231.7,481.8,346.8,2540.7,3267.1,168.7,69.1
0.097982,350.0,59.8,2537.5,100.3,3248.2,462.7,348.5,2537.6,3258.2,168.8,69
0.099982,351.6,63.8,2533.9,97.6,3259.6,439.9,350.6,2534.8,3251.2,168.8,69
0.101982,353.2,67.0,2526.6,98.5,3262.7,412.9,353,2532.3,3246,168.9,69
0.103982,354.9,69.5,2517.8,98.2,3261.2,377.7,355.7,2530,3242.4,168.9,68.9
0.105982,357.0,74.0,2513.2,91.1,3260.1,336.3,358.5,2527.9,3240.1,169,68.8
0.107982,359.7,82.7,2514.5,78.8,3257.3,297.8,361.4,2526.1,3238.3,169,68.8
0.109982,362.5,93.8,2518.3,67.9,3249.0,272.4,364.3,2524.5,3236.4,169,68.7
0.111982,365.3,105.6,2521.7,60.0,3234.0,257.9,367,2523.2,3233.7,169,68.5
0.113982,367.7,116.7,2524.1,55.2,3216.9,251.7,369.5,2522.2,3229.2,169,68.4
0.115982,369.4,125.2,2525.9,52.1,3203.5,250.4,371.5,2521.4,3222.3,169,68.3
0.117982,370.7,130.5,2527.2,50.0,3192.1,250.4,373,2521.1,3212.3,168.9,68.2
0.119982,371.5,133.0,2527.3,49.2,3179.8,248.9,373.9,2521.2,3198.7,168.9,68.1
0.121982,372.1,133.8,2527.1,49.4,3164.0,245.5,374.1,2521.7,3181.2,168.8,68
0.123982,372.4,133.5,2527.8,50.1,3146.2,243.6,373.7,2522.6,3159.6,168.7,67.9
0.125982,372.3,133.0,2529.4,51.8,3126.2,246.0,372.6,2524,3134.1,168.6,67.8
0.127982,372.3,132.1,2531.0,54.4,3106.1,253.6,370.9,2525.7,3105.1,168.5,67.7
0.129982,372.1,129.6,2532.4,57.7,3086.9,264.5,368.7,2527.8,3073.2,168.4,67.6
0.131982,371.3,124.6,2533.8,61.7,3065.0,275.9,366,2530.2,3039.3,168.3,67.4
0.133982,369.2,117.0,2534.7,65.2,3039.8,280.6,363.1,2532.7,3004.3,168.1,67.2
0.135982,365.8,107.4,2535.8,67.7,3008.9,273.2,359.9,2535.3,2969.5,168,66.9
0.137982,361.8,98.5,2537.2,70.1,2972.6,253.5,356.8,2537.9,2936,167.8,66.5
0.139982,357.8,92.1,2539.2,75.5,2929.4,223.1,353.8,2540.3,2905,167.7,66
0.141982,354.3,90.9,2541.3,86.2,2885.4,187.3,351.1,2542.5,2877.9,167.5,65.3
0.143982,350.7,97.5,2542.7,104.0,2846.6,153.3,348.9,2544.3,2855.5,167.3,64.5
0.145982,345.8,115.8,2542.1,132.7,2814.2,125.9,347.2,2545.6,2838.9,167.2,63.7
0.147982,339.4,145.9,2540.3,172.6,2792.6,112.9,346.1,2546.4,2828.6,167,62.7
0.149982,330.1,181.0,2541.9,227.5,2779.2,117.4,345.8,2546.7,2825.1,166.8,61.8
