time,f1,b1,f2,b2,f3,b3,f1p,f2p,f3p,f0,intensity
0.025331,391.1,188.7,1215.0,471.5,2356.5,396.8,423.8,1158.8,2368.4,169.2,75.8
0.027331,397.0,197.9,1186.3,349.5,2337.5,418.3,427,1162.2,2367.2,169.1,76.1
0.029331,402.1,204.0,1169.9,282.9,2302.0,437.8,432.3,1167.8,2365.2,168.9,76.3
0.031331,406.9,201.8,1160.7,236.2,2266.4,426.2,439.5,1175.4,2362.6,168.8,76.4
0.033331,414.6,208.2,1161.8,221.6,2259.9,450.4,448.4,1184.9,2359.6,168.6,76.3
0.035331,428.9,238.3,1174.9,243.7,2288.6,555.5,459,1196,2356.4,168.5,76
0.037331,453.4,287.3,1201.7,286.7,2345.3,722.9,470.8,1208.6,2353.2,168.3,75.6
0.039331,486.0,333.6,1234.6,319.0,2408.7,878.5,483.7,1222.4,2350.4,168.2,75.2
0.041331,521.5,352.5,1259.6,318.1,2431.4,957.3,497.2,1236.9,2348.3,168.1,74.7
0.043331,552.7,334.7,1271.8,288.7,2386.3,915.6,511.2,1252,2347.1,168,74.3
0.045331,577.8,298.6,1279.0,248.5,2339.9,796.2,525.3,1267.3,2347.1,167.9,73.9
0.047331,594.4,274.3,1286.6,219.6,2337.4,707.7,539.1,1282.4,2348.6,167.8,73.7
0.049331,603.3,265.4,1294.1,207.3,2365.7,670.8,552.4,1297.1,2351.8,167.8,73.6
0.051331,607.6,262.1,1301.8,208.0,2412.4,662.0,564.8,1311.1,2357,167.7,73.5
0.053331,610.0,260.5,1309.8,222.5,2474.3,675.3,576,1324,2364.3,167.7,73.6
0.055331,613.2,258.2,1318.0,249.5,2557.5,727.8,585.8,1335.6,2373.8,167.7,73.6
0.057331,615.3,250.0,1325.2,285.3,2605.2,962.8,593.9,1345.7,2385.4,167.7,73.7
0.059331,613.1,233.0,1329.0,318.9,2518.2,1046.1,600.3,1354.1,2399.3,167.8,73.7
0.061331,608.0,212.0,1331.4,339.9,2457.1,1014.4,604.6,1360.7,2415.3,167.8,73.8
0.063331,601.1,190.7,1334.5,340.3,2430.2,977.4,606.9,1365.4,2433.2,167.9,73.9
0.065331,592.9,172.9,1336.7,318.7,2418.9,939.8,607.1,1368,2452.8,168,73.9
0.067331,584.6,162.3,1338.0,294.1,2402.9,905.3,605.1,1368.7,2473.8,168.1,74
0.069331,576.0,160.4,1341.1,278.6,2382.7,896.8,601.1,1367.4,2496,168.2,74.1
0.071331,566.8,165.1,1347.0,272.7,2371.7,914.9,595,1364.2,2518.9,168.3,74.2
0.073331,556.9,171.3,1353.3,273.0,2374.2,940.6,587.1,1359.1,2542.2,168.4,74.2
0.075331,545.6,179.6,1360.5,283.6,2392.7,985.3,577.4,1352.4,2565.4,168.6,74.3
0.077331,535.0,192.8,1370.6,308.4,2444.1,1099.9,566.3,1344.1,2588.1,168.7,74.3
0.079331,526.9,207.4,1381.3,334.6,2578.5,1345.1,553.7,1334.5,2610,168.9,74.4
0.081331,519.2,210.4,1378.8,334.0,2762.6,298.1,540.2,1323.8,2630.5,169,74.5
0.083331,508.1,193.5,1355.7,298.8,2718.8,321.6,525.7,1312.1,2649.4,169.1,74.5
0.085331,496.5,166.8,1327.6,254.4,2685.4,359.1,510.8,1299.6,2666.3,169.3,74.6
0.087331,487.6,148.8,1307.7,229.9,2676.1,385.6,495.5,1286.6,2680.9,169.4,74.7
0.089331,480.3,143.3,1293.3,227.6,2705.3,372.3,480.1,1273.2,2693.1,169.5,74.7
0.091331,473.9,146.8,1280.5,237.7,2735.6,310.2,465,1259.5,2702.7,169.6,74.7
0.093331,466.9,153.7,1266.0,249.5,2723.4,1096.8,450.3,1245.8,2709.5,169.6,74.6
0.095331,457.5,161.2,1247.4,258.5,2666.4,1177.0,436.2,1232.2,2713.7,169.7,74.6
0.097331,444.8,164.3,1226.7,261.0,2641.4,1235.3,422.9,1218.8,2715.3,169.7,74.5
0.099331,429.4,157.9,1206.0,257.4,2670.7,1307.6,410.6,1205.6,2714.5,169.7,74.4
0.101331,411.6,141.5,1183.4,249.6,2759.8,249.2,399.4,1192.7,2711.4,169.7,74.4
0.103331,395.9,124.2,1161.8,241.4,2755.2,257.7,389.3,1180.1,2706.3,169.7,74.4
0.105331,385.0,112.7,1147.8,237.2,2748.0,287.2,380.5,1167.8,2699.7,169.6,74.5
0.107331,378.0,101.9,1139.7,237.8,2741.3,336.1,372.9,1155.8,2691.9,169.6,74.6
0.109331,374.2,87.5,1131.6,242.2,2750.8,356.4,366.6,1144,2683.3,169.5,74.8
0.111331,371.5,72.2,1118.4,246.5,2772.4,314.4,361.4,1132.5,2674.3,169.3,75
0.113331,368.2,59.2,1097.0,248.1,2780.7,275.1,357.4,1121,2665.5,169.2,75.2
0.115331,364.4,51.3,1075.4,250.9,2769.1,311.7,354.4,1109.7,2657.2,169,75.5
0.117331,360.8,47.7,1061.2,259.4,2721.6,461.3,352.4,1098.2,2649.9,168.8,75.7
0.119331,357.7,46.4,1055.1,272.8,2617.6,585.3,351.2,1086.7,2643.9,168.6,75.9
0.121331,354.6,46.4,1053.6,291.3,2552.5,633.9,350.6,1075.1,2639.6,168.3,76.1
0.123331,351.9,46.5,1052.7,308.4,2535.9,666.8,350.6,1063.2,2637.3,168.1,76.3
0.125331,349.6,45.8,1047.2,315.6,2544.3,666.2,351,1051.1,2637.2,167.8,76.4
0.127331,347.5,44.6,1033.7,312.0,2567.3,620.5,351.7,1038.7,2639.3,167.5,76.4
0.129331,345.6,44.0,1016.8,306.3,2597.6,539.5,352.5,1026.1,2643.8,167.2,76.4
0.131331,344.6,45.7,1005.3,312.8,2620.7,458.8,353.4,1013.4,2650.7,166.9,76.4
0.133331,344.7,50.6,1002.1,337.7,2634.5,409.6,354.1,1000.5,2659.6,166.6,76.3
0.135331,346.0,58.1,1004.7,370.9,2647.2,399.7,354.7,987.6,2670.6,166.3,76.2
0.137331,347.2,65.8,1005.5,393.1,2666.2,403.8,355.1,974.8,2683.3,165.9,76.1
0.139331,347.4,72.8,998.4,394.1,2689.1,407.5,355.2,962.3,2697.2,165.6,75.9
0.141331,346.7,78.8,983.7,377.9,2704.2,430.4,355,950.1,2712.1,165.3,75.7
0.143331,345.6,83.6,966.4,357.3,2707.2,497.3,354.4,938.5,2727.4,165,75.5
0.145331,344.3,87.4,947.7,336.0,2703.3,616.6,353.6,927.7,2742.6,164.7,75.2
0.147331,343.0,90.7,930.6,319.9,2752.2,674.4,352.5,917.9,2757.1,164.4,74.8
0.149331,342.0,93.5,916.7,313.2,2803.5,451.3,351.1,909.2,2770.5,164.1,74.4
0.151331,341.5,95.0,904.6,315.4,2813.0,300.9,349.6,901.8,2782.2,163.8,74
0.153331,341.6,96.6,894.5,331.2,2816.1,243.1,348,895.9,2791.7,163.5,73.6
0.155331,342.1,99.5,887.4,362.1,2815.7,243.6,346.3,891.7,2798.6,163.3,73.2
0.157331,343.2,102.4,884.3,398.7,2814.0,258.6,344.7,889.2,2802.3,163,72.9
0.159331,344.3,104.0,886.5,434.7,2817.2,254.2,343.2,888.6,2802.6,162.8,72.6
0.161331,344.7,103.4,897.7,476.2,2827.7,243.6,341.8,890,2799.2,162.6,72.3
0.163331,345.3,102.3,918.8,547.5,2835.8,261.1,340.7,893.3,2792,162.4,72.1
0.165331,345.9,100.7,943.4,657.9,2838.3,320.1,339.9,898.5,2780.9,162.2,71.9
0.167331,346.2,97.6,958.5,792.3,2789.6,1455.6,339.4,905.7,2765.9,162,71.6
0.169331,347.0,92.6,956.5,952.4,2796.9,1509.8,339.3,914.6,2747.1,161.8,71.4
0.171331,348.8,87.4,932.8,1155.4,2788.2,422.8,339.5,925.2,2724.9,161.6,71.3
0.173331,351.1,84.6,910.7,1356.2,2774.1,423.1,340.2,937.2,2699.4,161.5,71.1
0.175331,353.2,85.5,922.4,1436.2,2752.6,524.9,341.2,950.4,2671.3,161.3,71
0.177331,354.7,90.0,926.6,1295.6,2609.1,802.5,342.6,964.7,2640.9,161.2,70.8
0.179331,355.6,95.8,922.5,1093.6,2438.4,689.3,344.3,979.7,2608.9,161.1,70.7
0.181331,356.9,100.3,922.9,955.8,2403.1,564.4,346.2,995,2575.9,160.9,70.6
0.183331,358.9,104.7,925.2,879.6,2410.6,480.6,348.3,1010.5,2542.6,160.8,70.5
0.185331,360.8,111.3,927.8,862.5,2428.8,444.4,350.6,1025.7,2509.6,160.7,70.2
0.187331,363.1,121.0,936.2,902.5,2447.2,466.2,352.9,1040.4,2477.8,160.5,70
0.189331,367.3,135.1,961.0,1026.1,2467.3,561.3,355.1,1054.3,2447.8,160.4,69.7
0.191331,372.5,154.4,1009.0,1270.8,2485.9,718.7,357.2,1066.9,2420.3,160.3,69.3
0.193331,375.2,175.5,1061.7,1505.3,2452.9,776.1,359.2,1078.2,2395.8,160.2,68.9
0.195331,371.4,193.4,1074.8,1361.7,2381.2,566.7,360.9,1087.7,2375,160.1,68.5
0.197331,360.7,214.3,1096.6,1083.8,2359.2,349.1,362.3,1095.4,2358.3,160,68.1
0.199331,344.9,248.3,1156.6,915.3,2364.1,240.5,363.3,1101,2346,159.9,67.7
0.201331,326.0,307.2,1253.3,846.3,2374.5,210.9,363.9,1104.4,2338.6,159.8,67.4
0.203331,300.2,430.8,1367.1,846.0,2385.1,222.4,364.1,1105.5,2336.1,159.7,67.1
