time,f1,b1,f2,b2,f3,b3,f1p,f2p,f3p,f0,intensity
0.025698,741.8,766.5,1372.0,362.9,2514.4,71.3,705.4,1343.6,2474.9,151.4,59.8
0.027698,755.1,659.8,1383.7,353.1,2507.5,67.6,707.8,1344.6,2474,151.1,60.1
0.029698,765.5,564.1,1394.3,374.2,2492.0,72.5,711.9,1346.2,2472.4,150.7,60.5
0.031698,767.7,505.4,1395.4,408.1,2471.3,83.7,717.3,1348.4,2470.3,150.3,60.8
0.033698,759.7,478.6,1384.6,426.5,2451.8,99.8,724.2,1351.1,2467.6,149.9,61.1
0.035698,744.0,458.3,1373.5,405.8,2439.9,118.8,732.2,1354,2464.4,149.4,61.4
0.037698,730.5,435.4,1366.9,365.9,2435.8,135.6,741.3,1357.2,2460.8,149,61.7
0.039698,726.0,424.3,1359.2,335.3,2438.4,138.9,751.2,1360.4,2456.8,148.6,61.9
0.041698,729.9,425.3,1348.4,320.3,2444.6,125.1,761.7,1363.6,2452.5,148.1,62
0.043698,736.6,424.1,1337.3,311.2,2449.7,103.5,772.6,1366.5,2447.9,147.7,62.1
0.045698,741.5,416.1,1328.9,301.9,2451.5,84.6,783.6,1369,2443.2,147.2,62.2
0.047698,744.4,405.9,1323.3,292.8,2449.9,74.1,794.6,1371.1,2438.4,146.7,62.3
0.049698,747.6,394.6,1318.9,280.7,2444.9,69.9,805.3,1372.6,2433.7,146.3,62.4
0.051698,754.2,387.3,1315.9,265.2,2435.5,68.9,815.6,1373.5,2429,145.8,62.5
0.053698,768.6,389.8,1315.7,253.4,2422.2,68.0,825.2,1373.8,2424.6,145.4,62.6
0.055698,793.1,391.7,1318.9,245.6,2406.5,65.6,834,1373.4,2420.5,145,62.7
0.057698,820.4,384.1,1326.0,240.4,2393.1,62.3,841.9,1372.5,2416.7,144.6,62.8
0.059698,839.9,378.8,1335.7,243.0,2386.1,61.4,848.8,1371.1,2413.4,144.2,62.8
0.061698,856.0,385.3,1349.4,262.1,2383.3,65.4,854.6,1369.3,2410.6,143.8,62.9
0.063698,872.8,400.3,1365.5,297.7,2382.7,73.2,859.2,1367.3,2408.5,143.4,63
0.065698,884.8,413.2,1376.9,323.3,2386.1,77.5,862.7,1365.1,2407,143,63
0.067698,892.4,425.1,1382.1,331.8,2395.2,74.8,865.1,1363.1,2406.2,142.7,63.1
0.069698,900.9,437.6,1384.8,340.7,2408.5,68.7,866.4,1361.4,2406.1,142.3,63.2
0.071698,911.6,447.1,1387.5,357.8,2422.0,62.1,866.7,1360.1,2406.8,142,63.2
0.073698,916.9,449.1,1391.7,367.6,2431.8,56.5,866.1,1359.5,2408.2,141.7,63.3
0.075698,911.8,439.3,1400.9,363.0,2438.2,52.9,864.7,1359.8,2410.4,141.4,63.3
0.077698,898.5,415.8,1415.9,350.2,2441.5,52.4,862.6,1361,2413.3,141.1,63.4
0.079698,886.8,397.0,1426.6,337.9,2441.8,53.7,860,1363.2,2416.9,140.8,63.4
0.081698,879.7,393.2,1426.9,325.0,2441.0,54.5,857,1366.6,2421.1,140.6,63.4
0.083698,873.5,394.1,1419.9,306.8,2440.4,54.9,853.6,1371.2,2425.8,140.3,63.4
0.085698,866.5,387.5,1412.2,283.4,2440.8,55.1,850.1,1377,2430.9,140.1,63.3
0.087698,859.4,377.0,1406.7,257.8,2443.6,53.2,846.5,1383.8,2436.5,139.8,63.3
0.089698,849.3,363.3,1404.7,231.8,2449.4,48.3,843,1391.5,2442.2,139.6,63.2
0.091698,834.4,338.1,1407.5,209.5,2456.2,43.2,839.5,1400.1,2448.1,139.4,63.1
0.093698,818.6,306.6,1412.0,193.0,2461.4,39.8,836.3,1409.2,2454,139.2,63
0.095698,806.3,285.3,1413.0,179.5,2464.2,38.7,833.3,1418.7,2459.8,138.9,62.8
0.097698,796.9,279.1,1409.5,165.0,2464.7,40.2,830.6,1428.1,2465.4,138.7,62.7
0.099698,787.5,277.0,1404.7,148.3,2463.4,44.4,828.1,1437.3,2470.7,138.5,62.5
0.101698,779.1,268.4,1400.4,131.0,2460.2,49.1,826,1445.9,2475.5,138.3,62.4
0.103698,773.9,254.8,1398.2,117.9,2457.2,50.0,824.2,1453.5,2479.8,138.2,62.3
0.105698,773.3,243.6,1399.5,113.8,2454.2,49.3,822.6,1459.9,2483.4,138,62.2
0.107698,779.0,242.0,1404.3,123.0,2451.5,51.4,821.2,1464.7,2486.4,137.8,62.2
0.109698,791.2,248.6,1409.7,142.7,2453.0,55.9,820.1,1467.6,2488.6,137.6,62.2
0.111698,809.6,252.9,1414.5,168.7,2461.4,60.7,819.1,1468.6,2490,137.5,62.1
0.113698,828.9,244.5,1418.8,193.2,2474.9,63.1,818.3,1467.2,2490.7,137.3,62
0.115698,841.6,229.6,1422.7,207.6,2488.4,61.1,817.6,1463.6,2490.6,0,61.9
0.117698,846.7,222.6,1428.7,212.7,2498.0,56.6,817,1457.6,2489.7,0,61.7
0.119698,847.5,224.8,1441.7,214.0,2503.9,52.3,816.5,1449.2,2488.1,0,61.5
0.121698,845.3,232.7,1460.1,211.8,2506.2,49.0,816.2,1438.6,2485.9,0,61.3
0.123698,842.7,245.7,1469.1,209.2,2506.0,46.3,815.9,1425.8,2483.2,0,61.1
0.125698,840.6,268.8,1464.2,209.7,2504.8,44.6,815.9,1411.3,2480,0,60.9
0.127698,834.2,304.5,1449.6,209.9,2500.9,45.7,816,1395.2,2476.6,0,60.7
0.129698,821.6,335.4,1436.1,208.0,2490.1,52.5,816.4,1378,2472.9,0,60.4
0.131698,810.3,343.6,1429.2,209.6,2469.5,64.0,817.2,1360.1,2469.2,0,60.1
0.133698,808.0,346.4,1424.0,221.9,2448.4,74.9,818.5,1341.9,2465.6,0,59.7
0.135698,815.9,376.0,1412.1,253.3,2439.9,85.5,820.3,1324,2462.3,0,59.3
0.137698,835.6,456.8,1376.5,312.4,2441.1,102.8,822.7,1306.8,2459.3,0,58.8
0.139698,867.0,612.7,1292.6,366.0,2444.4,124.9,825.8,1290.8,2456.8,0,58.3
0.141698,875.9,776.8,1219.4,336.8,2448.4,129.5,829.8,1276.5,2455,0,57.8
0.143698,868.8,836.5,1200.0,310.1,2456.7,116.4,834.6,1264.3,2453.9,0,57.2
0.145698,873.2,875.4,1200.8,307.3,2469.5,104.6,840.4,1254.7,2453.6,0,56.6
0.147698,878.5,931.0,1213.2,308.8,2482.9,100.9,847.1,1247.9,2454.3,0,55.9
0.149698,862.5,967.7,1242.6,300.3,2492.3,101.2,854.9,1244.3,2455.8,0,55.2
0.151698,821.8,994.2,1277.4,276.1,2492.8,101.2,863.6,1243.9,2458.3,0,54.5
0.153698,789.7,1046.1,1298.7,257.8,2487.3,101.9,873.4,1246.9,2461.8,0,54.1
0.155698,805.6,1103.5,1297.0,273.2,2483.2,108.7,884,1253.3,2466.2,0,54
0.157698,862.9,1110.5,1274.8,325.3,2483.6,118.5,895.5,1262.9,2471.5,0,54.1
0.159698,901.5,1126.2,1246.6,373.1,2487.9,123.0,907.7,1275.7,2477.5,0,54.3
0.161698,892.5,1229.1,1233.5,375.4,2493.8,122.0,920.5,1291.1,2484.2,0,54.4
0.163698,850.4,1463.2,1230.7,349.3,2498.7,121.8,933.7,1309,2491.5,0,54.3
0.165698,776.3,1935.6,1228.7,320.4,2497.2,129.6,947.2,1328.8,2499.2,0,54
0.167698,788.9,2555.7,1219.8,317.7,2480.9,148.0,960.7,1350.1,2507.1,0,53.4
0.169698,1185.5,335.6,1243.4,2553.6,2453.5,167.6,974,1372.3,2515.1,0,52.7
0.171698,1142.9,324.6,1578.9,2209.4,2431.3,177.9,986.9,1394.7,2523,0,52.1
0.173698,1127.0,327.6,1614.3,2230.6,2422.5,180.3,999.2,1416.9,2530.7,0,51.7
0.175698,1122.2,361.0,1458.2,2358.4,2428.0,191.5,1010.7,1438.2,2537.9,0,51.7
0.177698,1105.9,398.3,1304.9,2008.9,2453.1,235.5,1021.1,1458,2544.6,0,51.9
0.179698,1070.6,445.8,1285.3,1370.6,2494.1,304.3,1030.3,1475.8,2550.5,0,52.2
0.181698,1024.5,467.4,1314.8,1031.2,2525.0,370.2,1038.1,1491,2555.5,0,52.4
0.183698,1015.6,431.7,1353.2,1094.1,2548.9,444.3,1044.3,1503.4,2559.6,0,52.4
0.185698,1017.3,395.4,1463.1,1387.7,2595.7,548.0,1048.8,1512.4,2562.5,0,52.1
0.187698,997.3,398.0,1738.0,1558.5,2687.1,696.1,1051.6,1518,2564.3,0,51.4
0.189698,938.6,432.5,1960.0,1062.2,2843.3,710.1,1052.5,1519.9,2564.9,0,50.4
