time,f1,b1,f2,b2,f3,b3,f1p,f2p,f3p,f0,intensity
0.025000,278.5,854.8,2318.9,183.4,3212.6,174.1,392.2,2370.8,3100.9,0,61
0.027000,374.0,530.4,2331.9,122.3,3202.9,147.0,394.5,2370.4,3096.8,0,62.5
0.029000,397.6,392.1,2354.1,80.0,3181.4,136.6,398.4,2369.8,3090,0,63.8
0.031000,412.6,322.0,2372.1,51.4,3146.7,151.7,403.7,2369,3080.7,0,65.1
0.033000,426.1,279.3,2380.3,37.3,3089.2,200.7,410.3,2368,3069,0,66.3
0.035000,437.4,250.3,2380.8,31.5,3011.8,251.8,418.2,2366.9,3055.2,0,67.4
0.037000,447.0,236.2,2377.3,28.5,2955.6,267.5,427.1,2365.8,3039.5,0,68.5
0.039000,456.4,241.1,2371.4,26.9,2936.0,264.0,436.8,2364.7,3022.1,0,69.3
0.041000,466.4,253.7,2365.1,26.5,2933.6,259.1,447.2,2363.6,3003.4,0,70
0.043000,476.2,249.4,2362.3,25.5,2931.6,257.1,458.1,2362.7,2983.7,0,70.5
0.045000,484.1,216.6,2364.4,23.0,2924.2,259.3,469.2,2362,2963.4,0,70.7
0.047000,489.5,165.8,2369.6,19.6,2909.9,267.0,480.4,2361.6,2942.7,0,70.7
0.049000,494.2,114.4,2375.6,16.5,2885.8,283.5,491.4,2361.6,2922,0,70.5
0.051000,502.0,80.9,2380.1,15.8,2849.5,308.6,502.1,2361.9,2901.6,0,70.1
0.053000,515.6,87.4,2380.0,21.5,2830.2,309.5,512.2,2362.8,2881.9,0,69.9
0.055000,533.3,156.6,2374.4,35.3,2839.9,284.0,521.5,2364.1,2863,0,69.8
0.057000,547.2,271.4,2373.1,43.9,2845.5,275.8,530,2366,2845.3,0,70
0.059000,554.8,350.0,2378.0,41.6,2844.6,278.5,537.5,2368.5,2829,0,70.4
0.061000,560.3,345.4,2384.8,34.4,2837.9,280.9,543.8,2371.6,2814.1,0,70.7
0.063000,563.1,283.2,2391.5,26.4,2825.6,282.1,548.9,2375.4,2801,0,70.8
0.065000,560.2,200.1,2397.5,19.5,2808.1,284.0,552.7,2379.7,2789.7,0,70.6
0.067000,549.5,121.7,2402.4,14.4,2786.8,292.4,555.3,2384.6,2780.2,0,70.1
0.069000,534.4,67.1,2404.9,12.0,2764.7,326.7,556.5,2390.2,2772.5,0,69.4
0.071000,524.4,41.2,2404.2,12.8,2751.3,400.8,556.5,2396.3,2766.7,0,68.6
0.073000,522.2,30.7,2399.4,16.7,2766.0,452.8,555.2,2402.9,2762.7,0,67.7
0.075000,524.6,26.3,2391.6,25.1,2797.8,394.2,552.8,2410,2760.3,0,66.8
0.077000,529.5,31.8,2388.3,44.8,2805.5,261.8,549.3,2417.6,2759.6,0,66.1
0.079000,536.2,63.8,2401.3,65.4,2797.0,206.1,544.9,2425.6,2760.2,0,65.6
0.081000,540.1,132.1,2415.5,68.1,2792.0,199.1,539.6,2434,2762.2,0,65.3
0.083000,535.2,186.6,2425.0,63.4,2788.0,199.8,533.7,2442.7,2765.2,0,65.3
0.085000,526.4,181.7,2431.8,56.6,2783.0,198.7,527.1,2451.7,2769.2,0,65.3
0.087000,517.6,143.5,2437.3,50.0,2777.1,197.5,520.2,2460.9,2773.9,0,65.1
0.089000,509.0,102.4,2442.2,45.6,2772.5,201.3,512.9,2470.3,2779.2,0,65
0.091000,501.3,77.5,2448.6,49.5,2779.9,214.9,505.5,2480,2785,0,64.8
0.093000,496.5,77.2,2464.2,78.4,2797.2,223.4,498,2489.8,2791,0,64.7
0.095000,495.3,84.4,2495.1,122.4,2798.4,229.0,490.7,2499.8,2797.1,0,64.8
0.097000,494.6,80.0,2520.1,135.5,2792.3,229.8,483.4,2509.9,2803.3,0,65
0.099000,492.5,69.0,2534.9,133.6,2785.2,224.9,476.5,2520.2,2809.4,0,65.3
0.101000,487.8,62.1,2548.7,129.0,2791.9,229.8,469.9,2530.7,2815.3,0,65.6
0.103000,479.5,69.8,2562.4,129.4,2828.6,247.1,463.6,2541.3,2821.1,0,65.9
0.105000,469.0,89.3,2572.9,148.5,2856.9,251.3,457.8,2552.1,2826.7,0,66.3
0.107000,461.8,98.7,2587.9,161.5,2858.4,253.2,452.3,2563,2832.1,0,66.8
0.109000,457.4,93.4,2606.9,156.6,2850.7,261.5,447.3,2574.1,2837.4,0,67.2
0.111000,452.2,86.2,2620.2,145.7,2844.9,271.5,442.7,2585.5,2842.5,0,67.6
0.113000,444.8,89.8,2616.6,148.5,2845.0,270.0,438.5,2597,2847.6,0,68
0.115000,436.8,106.8,2596.7,168.6,2847.2,251.2,434.6,2608.7,2852.7,0,68.2
0.117000,431.5,127.4,2582.2,188.9,2846.8,230.7,431,2620.5,2857.8,0,68.3
0.119000,429.6,149.9,2588.5,209.8,2842.2,222.8,427.6,2632.5,2863,0,68.3
0.121000,428.1,191.2,2618.2,238.0,2836.1,238.8,424.4,2644.5,2868.5,0,68.2
0.123000,421.9,276.3,2671.6,264.6,2820.8,288.6,421.3,2656.6,2874.2,0,68.1
0.125000,403.7,395.9,2731.3,216.2,2796.7,411.6,418.2,2668.6,2880.2,0,68
0.127000,383.6,460.8,2739.0,165.1,2817.4,490.2,415.1,2680.6,2886.6,0,68
0.129000,382.1,410.5,2734.5,150.9,2841.9,477.8,412,2692.3,2893.3,0,68
0.131000,386.5,321.6,2721.8,160.2,2864.3,432.7,408.8,2703.7,2900.4,0,68.1
0.133000,389.7,254.4,2700.4,179.3,2892.9,390.1,405.5,2714.6,2907.8,0,68.2
0.135000,394.3,205.1,2684.6,191.2,2919.8,366.9,402,2725,2915.5,0,68.4
0.137000,399.9,166.1,2690.7,199.1,2931.0,372.2,398.4,2734.7,2923.4,0,68.7
0.139000,403.3,139.6,2719.3,193.5,2933.8,423.5,394.7,2743.5,2931.5,0,68.9
0.141000,402.8,123.9,2747.0,154.2,2962.7,517.4,390.8,2751.4,2939.5,0,69.3
0.143000,399.8,111.7,2758.5,111.3,3031.2,573.1,386.8,2758.1,2947.5,160.5,69.6
0.145000,395.1,99.6,2761.6,82.7,3098.7,546.9,382.8,2763.5,2955.2,161.1,69.9
0.147000,389.2,91.4,2759.9,67.1,3126.7,479.2,378.7,2767.6,2962.5,161.8,70.1
0.149000,382.4,93.9,2755.4,61.2,3119.4,415.6,374.7,2770.1,2969.3,162.5,70.3
0.151000,375.0,115.1,2750.3,65.4,3091.9,381.8,370.9,2770.9,2975.3,163.1,70.4
0.153000,367.3,160.4,2747.5,84.0,3045.2,387.0,367.2,2770,2980.5,163.9,70.5
0.155000,360.3,208.7,2751.5,125.3,2967.7,412.6,363.7,2767.4,2984.7,164.6,70.6
0.157000,357.4,216.2,2779.8,201.1,2845.4,396.6,360.5,2762.9,2987.8,165.3,70.7
0.159000,357.9,182.1,2728.2,436.3,2828.1,167.2,357.7,2756.5,2989.7,166,70.8
0.161000,357.9,139.2,2727.4,401.9,2829.1,179.0,355.3,2748.3,2990.2,166.7,71
0.163000,356.2,104.1,2743.0,218.5,2870.9,329.9,353.4,2738.3,2989.3,167.4,71.1
0.165000,353.8,79.4,2715.7,149.4,2964.3,353.7,352,2726.6,2987,168.1,71.3
0.167000,351.8,63.8,2696.9,123.3,3023.5,334.4,351,2713.3,2983.3,168.7,71.4
0.169000,350.7,54.5,2684.5,112.6,3046.8,317.2,350.6,2698.6,2978.2,169.3,71.6
0.171000,350.6,49.2,2680.5,112.6,3038.3,317.5,350.8,2682.5,2971.7,169.9,71.8
0.173000,351.5,46.6,2683.8,125.7,3006.3,330.9,351.4,2665.3,2964.1,170.5,72.1
0.175000,353.1,45.8,2692.6,151.0,2964.4,345.7,352.6,2647.2,2955.3,171.1,72.4
0.177000,354.9,46.0,2700.9,186.0,2922.9,350.3,354.2,2628.4,2945.6,171.6,72.7
0.179000,356.3,46.3,2692.8,240.1,2884.4,314.2,356.1,2609.3,2935.1,172,73
0.181000,357.0,45.2,2642.7,287.5,2868.1,237.9,358.4,2590,2924.1,172.5,73.2
0.183000,357.6,43.1,2578.8,267.8,2864.3,182.4,361,2571,2912.8,172.9,73.3
0.185000,358.7,42.3,2537.2,218.1,2859.3,148.5,363.7,2552.3,2901.3,173.3,73.4
0.187000,360.9,45.2,2519.4,178.2,2855.1,129.9,366.5,2534.4,2890,173.6,73.5
0.189000,363.9,52.1,2513.8,154.0,2855.2,122.3,369.3,2517.5,2879.1,173.9,73.5
0.191000,367.2,60.5,2509.4,137.4,2859.2,119.6,372,2501.9,2868.9,174.2,73.5
0.193000,370.5,67.4,2501.1,123.9,2863.7,118.2,374.5,2487.9,2859.4,174.4,73.4
0.195000,373.8,72.0,2487.6,111.5,2867.2,116.9,376.8,2475.5,2851.1,174.6,73.4
0.197000,377.3,75.3,2469.0,98.2,2870.7,116.8,378.8,2465.2,2844,174.8,73.3
0.199000,381.0,77.5,2447.5,83.3,2875.7,120.3,380.4,2456.9,2838.3,175,73.1
0.201000,384.8,79.4,2425.6,69.1,2879.6,128.1,381.6,2450.9,2834.1,175.1,73
0.203000,389.1,84.4,2403.2,59.1,2876.6,139.5,382.4,2447.3,2831.5,175.3,72.8
0.205000,394.2,95.2,2378.5,56.3,2860.0,154.6,382.6,2446.1,2830.7,175.4,72.6
