time,f1,b1,f2,b2,f3,b3,f1p,f2p,f3p,f0,intensity
0.025751,300.9,152.4,2487.9,317.7,2870.0,310.0,318.2,2551.5,3008.3,205.7,74.2
0.027751,312.7,141.4,2509.0,239.5,2935.9,287.0,320.4,2551.9,3014.6,206.1,74.2
0.029751,323.3,131.3,2523.6,201.9,2997.9,256.0,323.8,2552.4,3024.8,206.6,74.2
0.031751,333.9,122.7,2539.7,189.1,3056.2,228.0,328.4,2552.9,3038.3,207.2,74.2
0.033751,344.1,113.5,2562.0,192.0,3108.9,215.4,334.1,2553.5,3054.6,207.8,74.2
0.035751,351.9,103.1,2584.1,201.9,3151.8,227.2,340.5,2553.9,3072.9,208.4,74.1
0.037751,357.2,92.6,2597.1,211.5,3182.6,265.3,347.5,2554.1,3092.4,209,74
0.039751,360.7,85.2,2601.6,213.2,3195.5,324.8,354.7,2554.1,3112.2,209.7,73.8
0.041751,363.5,81.3,2605.4,206.2,3189.5,401.3,361.9,2553.7,3131.6,210.3,73.6
0.043751,366.4,79.1,2609.9,199.0,3164.1,490.3,368.7,2553.2,3149.9,211.1,73.4
0.045751,370.1,75.6,2608.8,203.2,3123.2,576.3,374.9,2552.4,3166.6,211.8,73.3
0.047751,374.2,69.7,2589.2,223.0,3108.9,579.7,380.2,2551.8,3181.2,212.5,73.1
0.049751,378.4,63.6,2549.4,243.4,3154.0,485.9,384.3,2551.3,3193.6,213.3,73
0.051751,382.2,58.2,2506.6,264.9,3216.3,370.7,387,2551.4,3203.7,214.1,72.9
0.053751,384.7,55.1,2481.9,293.0,3252.3,295.9,388.2,2552.3,3211.5,214.9,72.8
0.055751,385.7,55.6,2483.2,312.2,3257.8,274.3,387.8,2554.3,3217.2,215.7,72.7
0.057751,385.2,59.1,2499.1,312.3,3239.3,295.9,385.8,2557.7,3221.2,216.5,72.7
0.059751,383.0,64.1,2520.6,304.7,3202.1,353.5,382.1,2562.9,3223.7,217.2,72.8
0.061751,379.3,70.1,2547.0,287.7,3166.5,416.9,377.1,2570,3225.1,218,72.8
0.063751,374.2,78.9,2576.5,252.0,3157.9,451.4,370.7,2579.2,3225.7,218.8,72.9
0.065751,368.0,90.7,2605.9,210.2,3171.5,465.9,363.4,2590.5,3225.8,219.6,73
0.067751,360.2,105.1,2634.9,168.9,3193.9,484.4,355.4,2603.8,3225.4,220.3,73.1
0.069751,351.0,117.5,2657.8,135.3,3216.6,520.8,347,2618.9,3224.5,221,73.3
0.071751,340.9,122.3,2673.9,113.7,3233.8,590.6,338.7,2635.5,3223.1,221.7,73.4
0.073751,331.1,118.8,2685.6,104.0,3239.8,702.5,330.8,2653.2,3221,222.4,73.5
0.075751,322.2,110.9,2696.6,101.5,3231.7,859.5,323.8,2671.5,3217.8,223.1,73.6
0.077751,315.0,103.0,2707.6,101.0,3218.9,1018.6,317.8,2689.8,3213.2,223.7,73.6
0.079751,309.6,97.9,2717.5,98.9,3224.1,1100.5,313.3,2707.5,3206.8,224.3,73.7
0.081751,306.4,96.8,2725.3,97.4,3241.3,1058.6,310.4,2723.9,3198.4,224.9,73.7
0.083751,305.4,100.0,2732.1,98.7,3241.5,931.4,309.3,2738.4,3187.6,225.4,73.7
0.085751,307.0,106.9,2736.8,100.6,3225.4,781.2,310,2750.4,3174.3,225.9,73.7
0.087751,311.1,113.9,2738.8,99.6,3208.8,669.0,312.5,2759.5,3158.5,226.3,73.7
0.089751,317.1,117.0,2739.2,98.1,3192.1,626.8,316.7,2765.2,3140.3,226.8,73.7
0.091751,324.0,114.5,2739.4,100.5,3168.2,663.7,322.3,2767.2,3120.1,227.1,73.6
0.093751,331.8,109.5,2740.2,107.2,3123.1,743.5,329.1,2765.6,3098.3,227.5,73.5
0.095751,339.8,105.6,2742.1,117.1,3049.2,789.5,336.6,2760.1,3075.6,227.8,73.4
0.097751,348.0,103.7,2745.6,131.8,2963.6,761.3,344.7,2751.1,3052.7,228.1,73.3
0.099751,355.7,103.8,2750.0,154.3,2898.6,684.4,352.8,2738.7,3030.5,228.3,73.1
0.101751,363.0,104.7,2750.5,194.0,2863.4,580.7,360.6,2723.4,3009.7,228.5,73
0.103751,369.2,104.1,2732.8,258.3,2862.2,460.5,367.7,2705.6,2991.2,228.7,72.9
0.105751,374.1,100.5,2687.3,285.4,2900.6,388.3,373.9,2685.8,2975.6,228.8,72.8
0.107751,377.3,95.7,2653.7,264.9,2949.8,373.5,378.9,2664.6,2963.5,228.9,72.7
0.109751,379.4,92.1,2634.1,239.4,3004.4,365.7,382.5,2642.6,2955.3,229,72.7
0.111751,380.6,90.7,2622.1,226.9,3046.5,349.0,384.7,2620.4,2951,229.1,72.7
0.113751,381.6,91.2,2610.5,229.7,3068.1,329.9,385.5,2598.5,2950.5,229.1,72.7
0.115751,382.2,93.5,2593.8,248.0,3069.8,317.8,385.1,2577.4,2953.7,229.1,72.8
0.117751,382.3,96.9,2569.3,278.3,3060.3,315.7,383.5,2557.6,2959.8,229.1,72.8
0.119751,381.6,100.8,2538.8,314.4,3047.2,324.3,381.1,2539.4,2968.2,229.1,72.9
0.121751,380.2,104.1,2513.9,346.3,3034.8,347.0,378.1,2523.1,2978.1,229.1,72.9
0.123751,378.3,106.5,2504.3,374.5,3023.5,385.7,374.9,2509,2988.6,229,72.8
0.125751,376.3,108.6,2508.2,400.6,3014.1,430.6,371.7,2497.2,2998.7,229,72.7
0.127751,373.9,111.2,2516.4,433.0,2999.9,474.1,368.9,2488,3007.6,228.9,72.6
0.129751,370.6,114.0,2521.4,496.7,2968.6,510.8,366.7,2481.3,3014.5,228.8,72.4
0.131751,364.5,117.0,2502.9,654.9,2908.8,496.7,365.2,2477.3,3018.9,228.7,72.3
0.133751,354.1,120.2,2360.3,858.9,2873.5,368.0,364.8,2476,3020.4,228.7,72.2
