time,f1,b1,f2,b2,f3,b3,f1p,f2p,f3p,f0,intensity
0.025585,939.9,341.6,1666.0,116.1,2793.1,343.6,960.9,1650,2713.9,0,68.2
0.027585,944.7,328.0,1664.4,100.2,2795.3,312.1,958.9,1653.2,2715.3,0,69.1
0.029585,947.8,331.2,1662.9,87.6,2800.5,274.3,955.5,1658.4,2717.6,0,69.6
0.031585,944.0,350.3,1663.0,81.3,2803.1,253.6,950.7,1665.8,2720.9,0,69.9
0.033585,929.8,382.7,1670.8,86.7,2797.8,270.5,944.7,1675,2724.9,0,70
0.035585,917.6,389.7,1692.1,100.8,2787.9,312.1,937.4,1686.2,2729.9,0,70
0.037585,915.4,370.4,1711.9,105.4,2785.9,325.0,928.9,1699.2,2735.6,0,70.1
0.039585,917.9,366.1,1724.8,105.9,2789.3,306.7,919.2,1713.8,2742.1,0,70.3
0.041585,919.8,393.5,1738.4,117.4,2791.5,279.0,908.5,1730.1,2749.3,0,70.4
0.043585,918.1,437.1,1763.7,146.4,2791.8,254.0,896.7,1747.7,2757.1,0,70.6
0.045585,909.8,444.1,1794.4,168.8,2790.7,237.3,884.1,1766.6,2765.6,0,70.7
0.047585,895.2,419.0,1817.9,167.6,2785.3,229.1,870.5,1786.7,2774.5,0,70.7
0.049585,877.6,392.2,1835.4,156.5,2772.9,242.5,856.2,1807.7,2784,0,70.8
0.051585,858.2,369.1,1856.2,149.2,2751.8,288.6,841.3,1829.5,2793.9,0,70.8
0.053585,838.1,336.8,1879.3,143.6,2720.9,362.5,825.7,1851.9,2804.1,0,70.8
0.055585,821.2,302.2,1891.9,136.3,2688.4,430.8,809.7,1874.8,2814.6,0,70.8
0.057585,802.7,279.6,1892.9,129.2,2647.8,497.9,793.3,1898,2825.4,0,71
0.059585,781.7,282.2,1890.5,127.5,2595.8,574.1,776.6,1921.3,2836.2,0,71.1
0.061585,760.8,316.4,1894.9,131.0,2576.9,645.5,759.7,1944.6,2847.2,164.2,71.4
0.063585,735.7,391.9,1908.0,137.4,2636.5,695.6,742.7,1967.7,2858.2,164.6,71.6
0.065585,701.0,482.2,1925.6,148.4,2714.0,705.3,725.6,1990.4,2869.2,164.9,71.8
0.067585,664.4,527.9,1950.3,156.9,2771.0,703.1,708.6,2012.7,2880.1,165.3,72
0.069585,650.2,482.3,1982.8,149.6,2818.0,693.6,691.8,2034.4,2891,165.6,72.2
0.071585,652.7,400.6,2014.6,129.5,2867.5,664.3,675.1,2055.4,2901.6,166,72.4
0.073585,657.8,324.6,2040.8,106.9,2926.8,606.3,658.8,2075.7,2912.1,166.3,72.5
0.075585,659.0,271.3,2058.6,91.0,2984.3,534.6,642.8,2095,2922.3,166.7,72.6
0.077585,654.5,233.0,2073.0,83.0,3031.8,478.2,627.1,2113.5,2932.3,167,72.7
0.079585,645.2,209.0,2086.9,84.2,3064.2,462.9,612,2130.9,2942,167.3,72.8
0.081585,631.1,194.4,2106.7,94.9,3093.4,474.4,597.3,2147.4,2951.4,167.6,72.9
0.083585,613.0,186.0,2135.9,113.9,3115.3,499.9,583.2,2162.8,2960.6,167.8,73
0.085585,593.9,181.3,2170.4,136.9,3122.6,543.3,569.6,2177.2,2969.4,168,73.1
0.087585,573.7,182.1,2206.3,160.6,3111.6,602.9,556.6,2190.6,2978,168.2,73.1
0.089585,554.3,190.1,2236.6,175.7,3085.2,632.5,544.3,2203,2986.2,168.4,73
0.091585,534.5,206.2,2262.4,174.1,3061.6,566.3,532.5,2214.5,2994.2,168.5,72.9
0.093585,515.3,228.0,2282.9,158.9,3056.6,441.9,521.3,2225,3001.9,168.6,72.7
0.095585,497.7,246.5,2299.1,142.8,3060.2,350.8,510.8,2234.8,3009.4,168.7,72.6
0.097585,481.2,249.1,2311.7,129.8,3064.4,315.4,500.8,2243.8,3016.6,168.7,72.7
0.099585,465.8,227.9,2320.3,123.2,3066.0,346.8,491.4,2252.1,3023.6,168.7,72.8
0.101585,450.0,189.1,2328.4,127.0,3065.5,476.9,482.6,2259.8,3030.5,168.6,73.1
0.103585,437.2,151.9,2336.3,143.7,3063.2,712.4,474.4,2267.1,3037.1,168.5,73.4
0.105585,430.1,128.5,2338.8,167.9,3046.2,864.9,466.6,2274.1,3043.7,168.4,73.7
0.107585,427.8,114.2,2335.6,197.2,3021.9,826.6,459.4,2280.7,3050.1,168.3,74
0.109585,429.1,104.1,2332.3,226.0,3002.3,742.8,452.6,2287.2,3056.4,168.1,74.2
0.111585,432.6,95.5,2334.2,248.2,3000.6,665.4,446.3,2293.6,3062.6,167.9,74.4
0.113585,436.6,88.7,2340.0,257.9,3023.4,594.1,440.3,2300.1,3068.8,167.7,74.5
0.115585,440.4,82.5,2341.8,260.4,3058.2,496.1,434.7,2306.8,3074.9,167.4,74.6
0.117585,442.2,76.3,2338.2,261.8,3084.0,388.9,429.5,2313.6,3081,167.1,74.8
0.119585,441.5,70.8,2335.1,267.5,3095.4,313.1,424.5,2320.8,3087.1,166.8,74.9
0.121585,438.3,66.7,2332.1,285.9,3097.1,270.2,419.8,2328.4,3093.2,166.5,75.1
0.123585,433.3,65.5,2321.9,326.6,3090.8,254.3,415.3,2336.5,3099.3,166.1,75.2
0.125585,426.8,67.4,2297.3,401.8,3078.3,251.9,411,2345.1,3105.4,165.8,75.3
0.127585,420.9,72.8,2260.6,509.2,3065.0,254.4,406.9,2354.3,3111.4,165.4,75.4
0.129585,416.4,80.4,2219.3,623.7,3054.2,254.3,403,2364,3117.5,165,75.4
0.131585,413.4,88.0,2183.0,706.1,3046.6,247.6,399.1,2374.4,3123.5,164.6,75.3
0.133585,411.6,91.6,2184.0,723.2,3043.7,242.8,395.4,2385.5,3129.5,164.1,75.2
0.135585,409.8,91.8,2239.3,701.5,3047.0,251.2,391.7,2397.2,3135.4,163.7,75
0.137585,407.0,90.2,2328.1,655.0,3060.3,275.0,388.1,2409.5,3141.3,163.2,74.8
0.139585,402.5,89.1,2406.1,590.9,3080.6,303.6,384.6,2422.5,3147,162.7,74.7
0.141585,395.2,89.2,2459.3,527.4,3102.1,332.0,381.1,2436,3152.6,162.3,74.6
0.143585,385.9,89.5,2489.8,484.0,3122.2,354.9,377.7,2450,3158.1,161.8,74.6
0.145585,375.4,89.3,2509.2,457.7,3145.6,368.7,374.3,2464.5,3163.4,161.3,74.6
0.147585,365.8,88.2,2522.1,446.9,3171.0,372.5,370.9,2479.4,3168.4,160.8,74.6
0.149585,357.0,85.2,2536.1,443.4,3195.7,373.8,367.5,2494.6,3173.2,160.2,74.5
0.151585,350.1,81.9,2551.7,443.1,3210.5,379.6,364.2,2510.1,3177.8,159.7,74.4
0.153585,345.1,82.4,2564.3,445.8,3213.5,390.5,360.9,2525.7,3182,159.2,74.3
0.155585,341.5,87.4,2575.4,446.8,3212.1,403.8,357.7,2541.3,3185.9,158.6,74
0.157585,339.8,93.3,2591.6,430.9,3218.9,411.8,354.5,2556.9,3189.4,158.1,73.7
0.159585,339.6,96.8,2614.9,388.8,3238.5,403.7,351.3,2572.3,3192.6,157.5,73.4
0.161585,340.1,96.9,2636.7,339.3,3259.8,377.4,348.3,2587.4,3195.3,157,73.1
0.163585,340.3,95.7,2652.3,305.3,3273.4,349.3,345.3,2602.2,3197.6,156.4,72.8
0.165585,339.3,94.7,2663.0,293.7,3277.7,334.5,342.3,2616.6,3199.4,155.8,72.6
0.167585,336.4,92.8,2671.3,305.0,3273.3,341.0,339.5,2630.3,3200.8,155.3,72.4
0.169585,331.7,87.3,2683.4,330.5,3263.2,366.5,336.7,2643.4,3201.6,154.7,72.3
0.171585,326.6,79.7,2703.5,349.6,3255.1,396.4,334.1,2655.8,3202,154.1,72.2
0.173585,321.8,73.9,2731.3,345.2,3253.3,412.2,331.6,2667.3,3201.9,153.5,72.1
0.175585,318.6,71.9,2754.1,330.0,3249.4,412.6,329.2,2677.9,3201.3,153,72
0.177585,317.7,71.6,2761.1,328.1,3234.0,420.6,326.9,2687.5,3200.2,152.4,71.8
0.179585,318.4,71.0,2747.9,325.8,3209.3,435.8,324.7,2696.1,3198.6,151.9,71.5
0.181585,320.3,69.8,2722.8,301.0,3185.9,454.8,322.7,2703.5,3196.6,151.3,71.1
0.183585,322.8,69.0,2697.5,259.8,3170.8,468.8,320.8,2709.9,3194,150.8,70.6
0.185585,325.3,70.0,2676.5,230.5,3159.1,450.0,319,2715.1,3191,150.2,70.1
0.187585,327.1,70.4,2662.0,225.5,3138.8,416.8,317.4,2719.1,3187.7,149.7,69.5
0.189585,328.0,66.2,2653.5,239.6,3114.8,392.6,315.9,2721.9,3183.9,149.2,69
0.191585,327.3,58.0,2647.6,260.4,3104.4,376.2,314.6,2723.5,3179.7,148.7,68.5
0.193585,325.1,50.1,2636.2,276.7,3115.5,346.5,313.3,2724,3175.2,148.2,68.1
0.195585,322.7,47.3,2618.4,286.0,3140.3,306.5,312.2,2723.3,3170.4,147.8,67.8
0.197585,321.2,51.8,2604.7,298.4,3162.2,281.7,311.3,2721.6,3165.3,147.3,67.6
0.199585,319.3,63.4,2603.5,324.5,3173.3,281.8,310.4,2718.8,3160,146.9,67.5
0.201585,316.6,76.8,2616.5,365.2,3168.5,305.8,309.7,2715,3154.5,146.5,67.6
0.203585,313.4,85.0,2639.4,418.6,3151.8,345.1,309,2710.3,3148.8,146.1,67.8
0.205585,310.0,84.7,2662.2,473.6,3136.0,371.7,308.5,2704.7,3143,145.8,68.2
0.207585,305.6,79.0,2679.4,509.8,3131.3,353.3,308,2698.4,3137.1,145.4,68.6
0.209585,301.6,72.3,2699.3,488.4,3139.7,306.5,307.7,2691.4,3131.2,145.1,69
0.211585,299.5,68.9,2730.5,411.2,3152.0,279.4,307.4,2683.8,3125.3,144.8,69.3
0.213585,299.1,71.2,2751.1,324.8,3159.0,274.8,307.2,2675.7,3119.4,144.5,69.6
0.215585,300.5,79.0,2746.7,297.0,3144.9,283.7,307,2667.3,3113.6,144.2,69.7
0.217585,302.7,86.8,2723.7,335.6,3107.6,275.6,306.9,2658.6,3107.9,144,69.7
0.219585,304.4,89.2,2689.9,378.9,3080.2,222.4,306.8,2649.8,3102.4,143.8,69.5
0.221585,305.1,87.8,2672.1,367.6,3071.3,180.7,306.8,2640.8,3097,143.5,69.2
0.223585,305.2,84.1,2671.3,335.2,3066.4,161.1,306.8,2632,3091.9,143.4,68.8
0.225585,305.7,80.9,2675.6,315.2,3060.5,156.7,306.8,2623.3,3087,143.2,68.2
0.227585,306.9,82.5,2680.8,327.0,3048.6,168.6,306.9,2614.9,3082.4,0,67.6
0.229585,308.8,91.8,2689.8,398.2,3021.0,208.9,306.9,2606.8,3078.1,0,66.9
0.231585,312.9,100.3,2712.7,540.1,2962.7,269.1,307,2599.2,3074.1,0,66.2
0.233585,319.6,93.9,2738.2,715.0,2888.1,296.4,307.1,2592.2,3070.5,0,65.6
0.235585,323.5,79.5,2735.3,686.1,2869.3,360.9,307.1,2585.8,3067.3,0,65.2
0.237585,321.8,69.1,2671.6,547.4,2941.8,435.0,307.2,2580,3064.5,0,64.9
0.239585,316.0,66.2,2613.3,533.6,3009.8,415.0,307.3,2575.1,3062,0,64.8
0.241585,307.7,70.5,2553.2,580.0,3071.4,392.6,307.3,2571,3060,0,64.5
0.243585,298.6,83.6,2470.9,626.7,3153.5,371.3,307.4,2567.7,3058.4,0,64.3
0.245585,292.0,98.9,2379.3,622.4,3243.7,341.6,307.4,2565.3,3057.3,0,63.9
0.247585,291.2,108.5,2348.6,596.5,3297.0,335.6,307.4,2563.9,3056.6,0,63.4
0.249585,295.2,117.5,2411.5,606.5,3279.1,379.0,307.4,2563.4,3056.4,0,62.9
