time,f1,b1,f2,b2,f3,b3,f1p,f2p,f3p,f0,intensity
0.025238,641.3,135.3,1528.7,555.5,2843.1,972.2,707.2,1410.5,2944.8,155.1,73.8
0.027238,668.6,111.3,1503.5,558.5,2894.4,925.8,710,1409.8,2942.5,154.4,73.7
0.029238,695.6,105.7,1460.2,525.4,2960.7,834.4,714.6,1408.7,2938.7,153.5,73.5
0.031238,723.9,108.9,1429.0,467.2,3016.5,758.3,720.9,1407.2,2933.5,152.6,73.3
0.033238,750.8,118.9,1418.8,416.9,3035.4,754.1,728.7,1405.2,2927,151.5,73
0.035238,769.1,143.4,1408.0,396.8,3003.0,835.1,737.9,1402.9,2919.1,150.4,72.9
0.037238,779.5,188.7,1379.6,392.4,2925.7,927.7,748.3,1400.1,2910.1,149.1,72.8
0.039238,782.7,243.1,1341.1,368.2,2855.4,901.5,759.7,1397.1,2900.1,147.6,72.7
0.041238,782.7,288.3,1311.2,315.3,2853.2,771.7,771.7,1393.7,2889.3,146.1,72.7
0.043238,783.7,318.2,1296.4,266.7,2887.8,660.9,784.3,1390.2,2877.7,144.4,72.7
0.045238,788.6,335.4,1292.5,233.6,2909.5,608.6,797.1,1386.4,2865.6,142.5,72.7
0.047238,799.3,346.8,1298.8,225.7,2903.1,634.4,809.9,1382.5,2853.2,140.6,72.6
0.049238,815.4,369.8,1311.9,252.8,2859.6,762.8,822.5,1378.5,2840.6,138.4,72.4
0.051238,835.5,408.2,1325.1,319.0,2769.0,996.6,834.6,1374.6,2828.1,136.2,72.1
0.053238,859.0,435.6,1334.7,397.0,2664.1,1219.6,846.1,1370.8,2815.8,133.8,71.8
0.055238,888.9,425.5,1355.6,459.1,2607.4,1367.4,856.8,1367.2,2804,131.4,71.4
0.057238,912.1,380.6,1394.4,475.7,2633.0,1432.3,866.5,1363.8,2792.9,128.8,70.9
0.059238,917.2,337.9,1424.6,448.3,2708.3,1376.0,875.3,1360.8,2782.6,126.1,70.5
0.061238,909.5,302.1,1434.0,410.7,2799.6,1160.0,882.9,1358.3,2773.2,123.4,70.2
0.063238,900.7,272.1,1431.1,390.6,2860.6,902.9,889.4,1356.3,2765,120.6,69.9
0.065238,893.4,253.5,1420.2,379.3,2884.9,710.9,894.9,1354.9,2758.1,117.8,69.7
0.067238,885.3,254.0,1399.9,352.5,2893.4,584.0,899.3,1354.2,2752.5,0,69.5
0.069238,874.3,281.1,1374.6,298.9,2894.7,494.0,902.7,1354.3,2748.3,112.2,69.4
0.071238,864.1,341.8,1359.2,250.2,2877.7,469.9,905.3,1355.1,2745.5,109.4,69.5
0.073238,858.0,449.5,1354.9,236.7,2819.6,545.7,907.2,1356.8,2744.1,106.7,69.6
0.075238,853.1,563.3,1355.0,244.3,2727.7,652.3,908.6,1359.3,2744,104,69.8
0.077238,853.3,616.9,1358.9,246.9,2668.1,694.2,909.6,1362.7,2745.2,101.5,70
0.079238,862.1,627.6,1364.8,239.3,2663.3,707.7,910.4,1366.8,2747.5,99,70
0.081238,882.6,631.5,1371.6,227.0,2693.8,721.5,911.2,1371.8,2750.8,96.7,70
0.083238,922.5,634.4,1381.8,217.4,2739.4,749.3,912.1,1377.5,2754.9,94.4,69.8
0.085238,967.3,628.2,1394.4,220.0,2774.0,824.2,913.5,1383.8,2759.5,92.4,69.6
0.087238,992.7,646.2,1401.9,245.4,2770.6,982.1,915.3,1390.7,2764.5,90.4,69.3
0.089238,984.2,679.7,1398.8,273.4,2730.2,1101.5,917.8,1398.1,2769.6,88.7,68.9
0.091238,949.1,685.2,1390.9,275.3,2705.5,1082.2,921,1405.9,2774.6,87,68.5
0.093238,914.0,666.8,1384.1,254.6,2719.7,985.6,925.1,1414,2779.2,85.6,68
0.095238,901.0,662.2,1381.5,233.7,2747.5,855.3,930,1422.2,2783.1,84.2,67.6
0.097238,929.5,675.0,1387.8,235.5,2766.6,713.0,935.9,1430.5,2786.3,83,67.3
0.099238,967.8,597.8,1412.2,264.1,2783.4,593.5,942.6,1438.8,2788.4,82,67.2
0.101238,961.5,464.4,1444.4,269.9,2808.2,483.9,950.2,1446.9,2789.4,81,67.4
0.103238,942.9,390.0,1449.1,243.6,2825.7,398.7,958.6,1454.8,2789,80.2,67.7
0.105238,930.8,373.3,1437.1,219.7,2832.2,345.7,967.6,1462.5,2787.3,79.5,68
0.107238,929.5,401.2,1426.9,218.4,2832.5,324.0,977.2,1469.8,2784.3,78.9,68.2
0.109238,953.2,467.7,1429.8,256.9,2826.3,334.0,987.2,1476.7,2779.8,78.4,68.5
0.111238,1020.9,480.7,1478.6,356.4,2805.3,393.8,997.3,1483.2,2774,77.9,68.7
0.113238,1064.2,420.2,1553.8,417.3,2774.7,484.4,1007.5,1489.4,2767.1,77.5,68.8
0.115238,1078.0,411.4,1569.3,430.8,2733.2,571.4,1017.5,1495.3,2759.1,77.2,68.8
0.117238,1077.2,438.5,1548.8,431.6,2696.8,623.8,1027.1,1500.9,2750.4,77,68.6
0.119238,1068.5,480.7,1519.9,419.6,2682.1,645.7,1036.2,1506.2,2741,76.8,68.3
0.121238,1061.3,527.4,1494.6,401.0,2695.5,641.9,1044.5,1511.5,2731.3,76.6,67.8
0.123238,1073.2,566.6,1481.8,395.2,2732.1,601.2,1051.9,1516.6,2721.6,76.4,67.2
0.125238,1076.9,533.9,1504.7,412.0,2753.3,532.6,1058.2,1521.8,2712.1,76.3,66.8
0.127238,1036.6,424.2,1561.2,399.0,2745.2,460.2,1063.2,1527.2,2703.2,76.2,66.7
0.129238,1007.6,356.6,1584.4,369.1,2735.6,403.2,1067,1532.8,2695.1,76.1,66.6
0.131238,992.8,334.4,1580.8,349.8,2731.8,358.6,1069.3,1538.7,2688.1,76,66.7
0.133238,982.6,338.9,1567.5,342.5,2729.6,321.5,1070.2,1545,2682.5,76,66.6
0.135238,976.1,372.9,1553.4,358.3,2722.6,304.1,1069.6,1551.8,2678.4,75.9,66.5
0.137238,984.6,444.5,1551.3,423.2,2696.5,333.3,1067.6,1559.1,2676,75.9,66.5
0.139238,1027.3,495.1,1582.9,541.8,2638.7,436.9,1064.1,1567,2675.4,75.9,66.5
0.141238,1061.0,474.8,1617.2,601.6,2581.4,531.7,1059.4,1575.4,2676.7,75.8,66.6
0.143238,1070.4,463.8,1616.0,596.4,2571.6,558.7,1053.4,1584.4,2679.8,0,66.7
0.145238,1075.8,476.5,1596.9,586.7,2592.5,559.4,1046.3,1593.8,2684.7,0,66.5
0.147238,1084.9,503.4,1567.5,579.4,2627.3,538.5,1038.4,1603.6,2691.3,0,66.2
0.149238,1107.6,533.2,1530.6,583.8,2668.5,497.5,1029.6,1613.7,2699.4,0,65.6
0.151238,1151.4,529.0,1495.4,628.9,2717.7,441.1,1020.4,1624,2708.7,0,64.8
0.153238,1139.5,460.5,1525.9,624.6,2770.3,366.7,1010.8,1634.4,2719.1,0,64.1
0.155238,1065.1,384.4,1592.9,484.0,2808.7,285.0,1001.1,1644.6,2730.1,0,63.4
0.157238,1008.4,332.3,1629.0,388.6,2823.9,240.3,991.5,1654.6,2741.4,0,63
0.159238,972.9,308.9,1654.8,364.1,2826.2,230.1,982.3,1664.1,2752.8,0,62.9
0.161238,948.8,294.4,1693.3,378.6,2817.7,239.1,973.5,1673,2763.9,0,62.9
0.163238,934.2,282.6,1746.8,400.0,2802.7,252.7,965.5,1681.1,2774.3,0,63.1
0.165238,925.2,287.0,1796.7,405.4,2789.6,260.1,958.4,1688.3,2783.7,0,63.3
0.167238,924.2,335.4,1810.1,400.5,2779.7,263.2,952.4,1694.4,2791.9,0,63.7
0.169238,932.9,465.2,1770.6,398.2,2768.1,276.3,947.5,1699.2,2798.5,0,64
0.171238,932.2,681.3,1701.0,383.0,2757.8,311.9,944,1702.8,2803.4,0,64.2
0.173238,904.5,919.7,1647.8,346.5,2760.6,365.9,941.8,1704.9,2806.3,0,64.4
0.175238,893.1,1017.1,1637.0,323.3,2786.7,402.1,941.1,1705.6,2807.3,0,64.3
