time,f1,b1,f2,b2,f3,b3,f1p,f2p,f3p,f0,intensity
0.025000,386.4,300.9,1382.0,5053.3,2259.5,898.6,456.5,2253.4,3714,171.5,64
0.027000,439.7,251.9,2331.0,830.4,3893.5,591.7,460.3,2257.5,3712.9,171.3,63.9
0.029000,474.0,209.4,2403.8,785.2,3896.8,428.9,466.5,2263.8,3711,171.2,64
0.031000,495.1,183.3,2448.9,750.7,3898.5,346.0,474.9,2271.6,3708.6,171.1,64.1
0.033000,509.0,169.4,2458.2,750.1,3910.4,316.6,485,2280.1,3705.8,170.9,64.1
0.035000,516.3,166.8,2440.7,793.7,3903.3,3048.8,496.5,2288.4,3702.8,170.8,64
0.037000,521.2,171.1,2422.6,825.9,3759.6,3364.2,508.9,2295.5,3699.6,170.7,63.8
0.039000,532.1,170.2,2399.7,744.7,3982.3,297.2,521.7,2300.7,3696.3,170.5,63.6
0.041000,549.2,156.0,2369.6,610.3,4011.0,320.3,534.4,2303.4,3692.7,170.4,63.3
0.043000,563.5,136.1,2351.1,529.4,4034.5,400.8,546.5,2303.2,3688.5,170.2,63.1
0.045000,570.3,124.1,2338.4,537.8,4051.0,597.2,557.8,2300.2,3683.3,170.1,63.2
0.047000,572.9,121.1,2317.0,614.1,3991.1,1489.1,567.7,2294.7,3676.7,169.9,63.2
0.049000,574.2,123.8,2292.2,722.1,3547.0,1354.3,576,2287.5,3667.9,169.8,63.4
0.051000,574.9,132.1,2289.4,832.4,3401.9,1258.4,582.5,2279.5,3656.3,169.6,63.6
0.053000,574.9,147.1,2306.5,940.1,3319.5,1256.8,587.2,2271.9,3641.1,169.4,63.7
0.055000,574.1,165.0,2300.1,1028.3,3284.6,1260.6,589.9,2266.1,3621.8,169.3,63.7
0.057000,573.2,177.5,2236.4,1081.6,3308.8,1226.3,590.8,2263.3,3597.9,169.1,63.5
0.059000,572.7,176.5,2136.1,1052.2,3371.3,1143.1,590,2264.8,3569.1,168.9,63.4
0.061000,573.3,166.0,2074.7,970.9,3409.0,1060.8,587.7,2271.2,3535.5,168.8,63.1
0.063000,572.6,157.6,2085.0,923.7,3387.1,1034.1,584.1,2283.2,3497.2,168.6,62.9
0.065000,569.6,157.1,2156.0,928.0,3322.8,1060.5,579.4,2300.8,3455,168.5,63
0.067000,569.0,159.4,2248.2,949.9,3270.5,1138.7,574,2323.4,3409.8,168.3,63.2
0.069000,575.5,156.3,2332.5,991.3,3265.5,1351.0,568.2,2350.1,3362.9,168.1,63.5
0.071000,584.0,149.0,2425.4,1005.6,3324.9,1860.5,562.1,2379.2,3315.8,168,63.8
0.073000,586.2,141.3,2520.7,875.1,3561.8,2973.3,555.9,2408.7,3270.2,167.8,64
0.075000,577.8,132.7,2560.4,729.5,3860.0,3907.2,549.9,2436.3,3227.8,167.6,64.1
0.077000,561.0,122.8,2552.5,675.3,3688.5,3288.7,544.1,2459.4,3190.3,167.5,63.9
0.079000,542.5,115.3,2509.7,704.2,3473.0,2504.2,538.6,2475.5,3159.2,167.3,63.7
0.081000,529.0,114.3,2472.1,793.2,3360.5,2204.6,533.5,2482.1,3135.8,167.2,63.4
0.083000,519.2,120.2,2512.1,943.1,3199.2,2373.2,528.8,2477.2,3121,167,63.2
0.085000,512.0,131.4,2669.0,915.6,2890.8,3302.5,524.4,2459,3115.1,166.9,63.1
0.087000,508.3,146.3,2628.6,4539.7,2750.8,756.4,520.3,2426.5,3118,166.7,63.2
0.089000,508.8,161.8,2546.4,4568.2,2794.6,705.5,516.3,2379.3,3128.8,166.6,63.4
0.091000,509.6,175.6,2477.2,4231.3,2837.3,754.0,512.5,2318,3146.4,166.5,63.6
0.093000,505.8,189.8,2307.2,4400.8,2893.0,916.6,508.7,2243.8,3168.9,166.3,63.8
0.095000,496.8,197.5,2066.8,4090.1,3005.5,1235.4,504.9,2158.4,3194.1,166.2,63.9
0.097000,489.8,194.8,1884.9,3103.5,3226.5,1438.3,501,2064.5,3219.6,166.1,63.8
0.099000,487.6,192.3,1741.8,3246.7,3322.5,1432.4,497.1,1965,3242.6,166,63.5
0.101000,489.0,195.0,794.7,2770.6,3334.1,1555.1,493.1,1863.3,3260.6,165.9,63.1
0.103000,493.3,198.6,819.9,2455.7,3181.5,2405.3,489,1762.8,3271,165.8,62.7
0.105000,498.9,194.3,2099.2,2525.6,3449.5,863.1,484.9,1666.7,3271.8,165.8,62.3
0.107000,500.4,180.7,1977.7,1406.5,3428.9,574.0,480.8,1578.1,3261.3,165.7,62.2
0.109000,492.5,174.4,1940.0,1118.1,3413.5,433.7,476.8,1499.4,3238.6,165.6,62.4
0.111000,480.5,183.9,1875.7,1174.2,3382.2,402.5,473,1432.7,3203.5,165.6,62.7
0.113000,468.5,198.0,1766.4,1404.6,3328.5,444.2,469.3,1379,3156.4,165.5,63.1
0.115000,460.9,206.3,1667.1,1714.5,3251.8,581.9,465.9,1338.7,3098.6,165.5,63.4
0.117000,454.8,206.6,1277.2,2186.1,3071.3,926.6,462.8,1311.5,3032.1,165.4,63.5
0.119000,447.4,192.2,1101.7,1473.9,2715.8,760.9,460,1296.2,2959.6,165.4,63.5
0.121000,446.8,168.0,1122.6,1232.9,2649.2,519.0,457.6,1291,2884,165.4,63.3
0.123000,454.8,142.0,1170.4,1184.0,2654.3,397.0,455.6,1293.8,2808.9,165.3,63.1
0.125000,462.8,119.4,1228.4,1122.5,2664.3,313.7,453.8,1302.1,2737.7,165.3,62.9
0.127000,465.0,105.7,1267.8,958.0,2659.5,249.7,452.5,1313.3,2673.9,165.3,62.8
0.129000,461.3,102.8,1280.6,805.0,2643.2,213.1,451.4,1325,2620.5,165.3,62.8
0.131000,453.7,109.7,1287.2,755.4,2623.8,209.3,450.7,1335.1,2580.4,165.3,63.1
0.133000,443.9,125.7,1313.6,829.5,2606.1,241.4,450.3,1341.8,2555.5,165.2,63.3
0.135000,435.5,144.7,1396.7,1000.8,2595.9,313.8,450.1,1344.1,2547,165.2,63.4
