time,f1,b1,f2,b2,f3,b3,f1p,f2p,f3p,f0,intensity
0.025689,355.4,315.6,1071.4,178.4,2909.4,306.2,436.6,1118.4,2923.8,195.2,64.8
0.027689,386.7,397.8,1088.6,196.0,2914.0,289.8,437.3,1118.9,2924.1,194.7,65.5
0.029689,426.9,460.8,1110.1,213.6,2911.4,267.0,438.3,1119.8,2924.5,194.2,66
0.031689,454.9,450.1,1132.2,210.6,2909.7,242.7,439.8,1121,2925.1,193.7,66.4
0.033689,464.8,394.4,1148.2,181.9,2906.9,213.6,441.6,1122.4,2925.9,193.2,66.7
0.035689,466.4,334.7,1153.5,148.8,2907.7,185.4,443.7,1123.9,2927,192.7,67
0.037689,465.9,281.5,1151.7,124.8,2918.2,163.1,446.1,1125.4,2928.3,192.2,67.1
0.039689,467.0,234.5,1147.5,109.7,2935.0,147.8,448.7,1126.8,2929.9,191.6,67.2
0.041689,469.6,195.0,1143.5,100.5,2949.7,140.7,451.5,1127.9,2931.8,191.1,67.2
0.043689,472.0,166.1,1140.9,95.5,2957.1,142.2,454.4,1128.8,2934,190.6,67.3
0.045689,472.6,147.5,1139.1,93.3,2960.3,150.3,457.3,1129.1,2936.6,190,67.3
0.047689,471.9,136.1,1136.5,92.7,2967.1,160.0,460.3,1128.9,2939.6,189.5,67.4
0.049689,471.5,128.1,1132.2,92.8,2980.8,163.5,463.1,1128,2943,189,67.5
0.051689,471.9,119.9,1125.6,93.6,2993.0,158.9,465.8,1126.3,2946.7,188.5,67.7
0.053689,472.6,110.4,1117.0,95.4,2994.6,155.8,468.3,1123.7,2950.9,188,67.8
0.055689,473.3,101.3,1107.7,99.0,2987.3,165.0,470.6,1120.3,2955.5,187.5,67.9
0.057689,473.9,95.3,1099.5,105.8,2973.7,189.9,472.5,1115.9,2960.4,187,68
0.059689,474.1,94.4,1093.1,118.6,2952.9,224.1,474.1,1110.6,2965.6,186.6,68.1
0.061689,473.2,98.2,1087.2,139.5,2930.3,256.3,475.3,1104.4,2971.1,186.1,68.2
0.063689,471.8,104.6,1080.8,169.2,2919.8,280.1,476.1,1097.4,2976.9,185.7,68.2
0.065689,471.4,111.8,1074.6,208.8,2928.3,295.8,476.4,1089.6,2982.8,185.3,68.3
0.067689,472.5,117.6,1069.1,257.6,2950.3,305.1,476.2,1081.1,2988.9,184.9,68.3
0.069689,474.8,120.1,1064.6,306.2,2975.6,305.9,475.6,1072,2994.9,184.5,68.2
0.071689,476.5,119.2,1060.8,336.8,2995.8,295.9,474.5,1062.5,3001,184.2,68.1
0.073689,475.0,116.9,1053.5,335.2,3006.2,283.1,473,1052.7,3007,183.8,68
0.075689,469.3,115.4,1040.0,306.1,3008.9,277.7,471,1042.8,3012.7,183.5,67.9
0.077689,460.7,116.2,1024.1,268.8,3009.9,278.8,468.6,1032.9,3018.2,183.2,67.9
0.079689,452.5,119.7,1010.4,240.6,3013.4,280.2,465.9,1023.3,3023.4,182.9,67.9
0.081689,447.1,125.3,999.7,227.2,3021.6,279.0,462.9,1014.1,3028.2,182.6,67.9
0.083689,444.9,130.7,991.6,224.8,3031.9,273.9,459.6,1005.4,3032.6,182.4,67.8
0.085689,445.1,133.1,988.6,228.0,3036.6,263.0,456.1,997.3,3036.5,182.1,67.7
0.087689,447.1,133.5,992.7,232.3,3038.7,243.4,452.5,990.1,3039.8,181.9,67.6
0.089689,448.6,133.9,1000.7,233.2,3047.3,218.3,448.8,983.8,3042.6,181.6,67.4
0.091689,447.2,136.1,1006.3,228.8,3063.3,194.0,445.1,978.5,3044.9,181.4,67.3
0.093689,443.0,143.1,1008.5,223.4,3078.9,172.7,441.5,974.2,3046.6,181.2,67.2
0.095689,438.0,156.3,1008.8,223.3,3086.9,158.3,438.1,971.1,3047.8,181,67.2
0.097689,434.1,173.2,1007.4,231.3,3087.1,154.4,434.8,969,3048.4,180.8,67.2
0.099689,432.4,187.6,1003.4,242.3,3083.0,159.0,431.8,967.9,3048.7,180.6,67.1
0.101689,432.8,192.3,997.3,247.6,3075.6,167.5,429.2,967.8,3048.4,180.4,67
0.103689,434.4,186.4,989.4,244.9,3062.5,176.9,426.9,968.6,3047.9,180.2,66.8
0.105689,435.5,176.0,979.8,238.0,3042.3,184.5,425,970.2,3047,180,66.7
0.107689,434.3,168.2,969.4,231.1,3021.7,184.8,423.5,972.4,3045.9,179.8,66.5
0.109689,430.6,167.4,960.1,226.1,3015.1,173.5,422.6,975.1,3044.6,179.6,66.4
0.111689,426.1,175.9,956.6,224.1,3023.5,154.0,422,978.2,3043.3,179.3,66.3
0.113689,424.4,192.4,963.1,227.3,3034.4,134.7,422,981.3,3041.8,179.1,66.2
0.115689,427.2,209.5,975.9,233.0,3039.8,126.3,422.4,984.4,3040.4,178.9,66
0.117689,431.8,215.4,985.5,235.4,3038.8,138.3,423.2,987.4,3039,178.6,65.9
0.119689,434.7,206.6,985.4,236.6,3034.4,171.5,424.4,989.9,3037.6,178.3,65.7
0.121689,435.8,192.6,978.7,243.3,3029.8,213.6,426,991.9,3036.3,178,65.5
0.123689,435.1,183.9,970.0,258.7,3025.3,233.6,427.8,993.2,3035.1,177.6,65.4
0.125689,432.2,185.5,962.3,279.0,3021.5,217.9,429.8,993.6,3033.8,177.2,65.4
0.127689,427.4,195.9,957.2,295.1,3020.8,191.3,432,993.2,3032.5,176.7,65.5
0.129689,423.4,211.8,956.6,306.6,3022.7,172.4,434.2,991.9,3031.1,176.1,65.5
0.131689,423.5,230.9,960.4,321.2,3024.3,168.8,436.3,989.5,3029.5,175.4,65.5
0.133689,426.1,244.3,961.2,332.9,3028.3,192.2,438.3,986.2,3027.6,174.7,65.4
0.135689,429.1,243.2,955.6,328.9,3039.8,247.8,440.1,981.9,3025.3,173.8,65.1
0.137689,433.7,232.8,951.0,312.9,3052.9,324.8,441.4,976.6,3022.4,172.8,64.9
0.139689,439.9,227.6,952.2,305.7,3037.7,386.0,442.4,970.6,3018.7,171.7,64.6
0.141689,445.4,236.6,958.3,320.6,2989.7,373.1,442.7,964,3014.2,170.4,64.3
0.143689,447.5,258.0,965.5,351.1,2955.6,316.8,442.5,956.8,3008.6,168.9,64.2
0.145689,443.3,284.4,967.9,372.7,2940.6,271.1,441.4,949.2,3001.7,167.2,64.2
0.147689,430.6,303.1,960.5,361.1,2929.5,249.6,439.6,941.5,2993.5,165.4,64.1
0.149689,414.9,306.2,949.5,328.5,2915.2,254.8,436.9,933.9,2983.8,163.3,64
0.151689,407.5,300.4,946.0,305.0,2906.3,285.4,433.3,926.5,2972.4,161.1,63.7
0.153689,413.0,291.2,953.8,298.6,2921.4,331.5,428.7,919.6,2959.3,158.6,63.3
0.155689,426.0,277.0,968.0,294.9,2964.4,363.7,423.1,913.4,2944.3,155.9,62.9
0.157689,434.2,263.0,976.8,281.7,3007.0,365.9,416.5,908,2927.3,153,62.5
0.159689,430.4,264.2,975.0,268.7,3030.8,360.9,408.8,903.7,2908.3,149.9,62.1
0.161689,415.1,290.1,967.9,268.8,3045.5,361.2,400.2,900.6,2887.4,146.6,62
0.163689,393.0,334.2,957.8,278.7,3057.6,382.9,390.7,898.8,2864.6,143.1,61.9
0.165689,370.6,378.6,943.7,284.1,3060.6,480.8,380.2,898.4,2839.9,139.4,61.8
0.167689,356.1,400.2,929.8,273.4,2941.1,930.5,368.9,899.5,2813.4,135.6,61.7
0.169689,356.1,393.4,921.5,256.4,2699.3,668.0,356.9,902.2,2785.3,131.7,61.4
0.171689,367.4,382.9,916.9,253.7,2638.4,493.4,344.3,906.3,2755.9,127.7,60.9
0.173689,379.6,390.8,910.6,275.5,2621.1,419.0,331.2,911.9,2725.3,123.7,60.4
0.175689,379.8,431.1,896.5,319.4,2619.3,437.3,317.7,918.8,2693.7,0,60
0.177689,355.3,522.7,869.8,371.5,2624.9,544.3,303.9,926.9,2661.6,115.5,59.8
0.179689,295.6,646.1,841.0,401.2,2616.1,705.5,290,936.2,2629.1,111.5,59.8
0.181689,223.3,715.9,832.9,403.3,2558.6,828.4,276.2,946.3,2596.7,107.5,59.8
0.183689,191.9,713.4,846.0,401.1,2480.2,851.9,262.6,957,2564.7,103.7,59.7
0.185689,206.5,683.8,867.7,409.3,2411.2,818.4,249.4,968.2,2533.5,99.9,59.5
0.187689,234.8,668.7,887.5,445.1,2367.1,772.2,236.7,979.6,2503.5,96.4,59.1
0.189689,251.5,694.3,900.1,530.6,2350.9,773.9,224.6,990.9,2474.9,93,58.7
0.191689,233.5,745.0,912.5,652.1,2351.3,851.5,213.4,1001.8,2448.2,89.8,58.5
0.193689,171.9,760.9,943.2,710.8,2371.0,952.8,203.2,1012.2,2423.8,86.7,58.4
0.195689,121.4,715.1,978.9,664.7,2408.6,962.2,194,1021.8,2401.9,84,58.4
0.197689,107.8,669.5,1001.1,622.7,2425.5,895.1,186,1030.2,2382.9,81.4,58.5
0.199689,118.0,651.6,1029.3,641.9,2410.9,865.3,179.4,1037.5,2366.9,79,58.4
0.201689,167.1,616.8,1088.7,668.3,2394.6,914.7,174.1,1043.3,2354.2,76.9,58.3
0.203689,221.7,550.1,1166.5,625.7,2410.3,1017.1,170.3,1047.6,2345.1,75,58.1
0.205689,251.0,477.0,1231.5,532.5,2462.8,1113.2,168,1050.2,2339.5,73.3,57.9
0.207689,249.5,416.7,1282.0,451.3,2515.8,1133.1,167.2,1051,2337.7,71.8,57.8
