time,f1,b1,f2,b2,f3,b3,f1p,f2p,f3p,f0,intensity
0.025304,456.0,578.7,1275.3,400.5,2981.5,281.9,507.2,1317.8,3030.1,243.6,72.5
0.027304,493.8,423.6,1285.8,314.7,3011.4,226.9,510.1,1325.7,3029.7,243.5,73.5
0.029304,515.4,305.8,1294.3,258.6,3034.0,187.8,514.9,1338.6,3029.1,243.3,74.4
0.031304,531.1,243.3,1309.0,244.1,3042.2,169.0,521.5,1356.3,3028.5,243.1,75.3
0.033304,548.3,215.0,1341.7,264.7,3038.1,162.8,529.8,1378.1,3027.9,242.8,76.1
0.035304,564.5,201.5,1394.0,296.8,3027.0,162.1,539.6,1403.6,3027.6,242.5,76.7
0.037304,577.3,187.8,1461.6,307.3,3018.0,155.4,550.7,1432.2,3027.8,242.1,77.1
0.039304,586.1,175.3,1523.2,275.9,3018.6,137.1,562.8,1463.2,3028.7,241.8,77.4
0.041304,592.8,166.6,1563.5,225.4,3027.1,118.0,575.7,1496,3030.4,241.3,77.6
0.043304,599.6,160.0,1591.0,178.1,3041.4,105.2,589.2,1529.8,3033.2,240.8,77.7
0.045304,606.4,154.9,1614.4,144.4,3057.2,99.5,602.8,1564.1,3037.1,240.3,77.8
0.047304,613.3,149.6,1641.9,116.8,3071.7,96.2,616.3,1598.3,3042.2,239.7,77.8
0.049304,619.0,143.6,1669.4,93.2,3081.4,91.7,629.3,1632,3048.5,239,77.9
0.051304,624.1,137.3,1694.4,72.2,3086.8,84.0,641.5,1664.7,3055.9,238.3,77.9
0.053304,629.1,133.5,1713.1,57.8,3088.1,75.9,652.5,1696.3,3064.4,237.5,77.9
0.055304,635.4,131.9,1728.0,49.2,3087.4,70.5,662.1,1726.6,3073.8,236.6,77.9
0.057304,643.0,132.2,1739.5,46.4,3086.8,69.4,669.9,1755.5,3083.8,235.7,77.8
0.059304,652.9,135.3,1751.5,48.3,3086.7,72.7,675.6,1783.3,3094.2,234.7,77.6
0.061304,663.4,140.4,1767.0,54.8,3086.5,84.1,679.1,1809.9,3104.7,233.7,77.3
0.063304,673.3,145.4,1791.5,65.7,3087.2,111.0,680.2,1835.8,3115,232.6,77
0.065304,680.9,147.3,1822.9,75.5,3092.1,151.1,678.7,1861.1,3124.8,231.4,76.7
0.067304,685.9,147.6,1853.6,80.2,3105.1,176.5,674.7,1886.3,3133.8,230.1,76.3
0.069304,689.2,149.3,1884.9,81.8,3125.0,158.8,668.1,1911.5,3141.8,228.8,75.8
0.071304,688.1,152.3,1916.3,84.0,3140.1,120.0,659.1,1937.2,3148.6,227.5,75.4
0.073304,679.0,155.4,1948.9,89.1,3148.0,89.8,647.8,1963.7,3154,226,74.9
0.075304,661.9,156.8,1975.2,98.0,3151.9,77.6,634.4,1991.1,3158.1,224.5,74.4
0.077304,639.1,158.7,1998.8,110.8,3155.9,76.8,619.3,2019.5,3160.7,223,74
0.079304,615.0,167.3,2025.1,124.2,3160.4,79.4,602.8,2049,3162,221.4,73.6
0.081304,588.3,184.4,2063.4,137.5,3163.9,80.0,585.2,2079.7,3162.2,219.7,73.3
0.083304,564.7,201.0,2112.4,146.6,3164.6,79.5,567,2111.2,3161.3,218,73
0.085304,546.3,210.9,2171.8,148.4,3162.0,82.5,548.6,2143.6,3159.8,216.3,72.8
0.087304,532.6,216.9,2228.2,143.2,3156.4,93.9,530.4,2176.4,3157.9,214.5,72.7
0.089304,514.6,227.1,2278.6,136.0,3150.9,115.9,512.8,2209.4,3155.8,212.6,72.6
0.091304,487.1,242.7,2314.9,129.3,3155.8,129.2,496.2,2242.1,3153.9,210.8,72.7
0.093304,456.4,253.4,2334.7,126.3,3172.2,119.9,480.9,2274.3,3152.5,208.8,72.7
0.095304,432.1,249.6,2346.1,132.3,3190.9,102.5,467.1,2305.5,3151.8,206.9,72.8
0.097304,421.2,236.8,2354.5,147.1,3200.9,89.9,455.2,2335.3,3151.9,204.9,72.8
0.099304,415.0,226.6,2365.9,172.6,3200.6,84.6,445.1,2363.6,3153.1,202.9,72.8
0.101304,406.5,223.5,2382.2,212.6,3193.3,88.9,437,2390.1,3155.2,200.9,72.8
0.103304,400.1,227.1,2400.9,267.0,3178.4,100.9,430.8,2414.6,3158.4,198.8,72.6
0.105304,407.7,229.2,2415.7,315.7,3157.5,105.0,426.3,2437.1,3162.3,196.7,72.3
0.107304,431.3,209.8,2426.5,358.7,3138.4,93.5,423.5,2457.5,3166.9,194.6,71.8
0.109304,454.6,171.3,2431.7,406.9,3129.4,83.2,422.1,2476.1,3171.7,192.5,71.2
0.111304,469.6,138.2,2429.9,461.0,3126.1,84.7,421.7,2493.1,3176.5,190.3,70.6
0.113304,473.7,125.9,2436.7,475.7,3126.9,99.5,422,2508.6,3180.8,188.1,70
0.115304,466.6,127.8,2474.4,422.1,3136.5,130.0,422.7,2523,3184.2,186,69.6
0.117304,453.5,133.0,2520.7,326.4,3158.5,153.5,423.4,2536.8,3186.3,183.8,69.4
0.119304,441.1,135.2,2551.7,250.9,3178.5,137.5,423.8,2550.2,3186.7,181.6,69.3
0.121304,432.7,136.5,2567.8,226.6,3183.0,110.1,423.4,2563.7,3184.9,179.4,69.2
0.123304,426.7,139.8,2576.3,229.2,3181.5,95.8,422.2,2577.6,3180.8,177.1,69
0.125304,418.8,142.9,2587.5,235.4,3178.7,91.5,419.7,2592.1,3174,174.9,68.7
0.127304,407.0,138.2,2610.4,236.6,3174.6,96.2,416,2607.6,3164.6,172.7,68.3
0.129304,392.8,123.4,2647.7,233.2,3167.6,110.5,410.9,2624,3152.5,170.5,67.9
0.131304,382.1,109.9,2685.6,227.1,3158.1,130.3,404.3,2641.5,3137.8,168.2,67.6
0.133304,373.8,107.3,2715.8,221.9,3143.7,149.3,396.5,2659.9,3120.9,166,67.5
0.135304,364.4,117.8,2732.1,218.5,3124.2,153.8,387.5,2679.2,3102,163.8,67.5
0.137304,350.5,138.0,2738.9,210.6,3102.8,140.7,377.7,2698.9,3081.7,161.7,67.6
0.139304,336.1,156.3,2745.3,200.9,3088.7,128.6,367.2,2718.8,3060.5,159.5,67.6
0.141304,324.8,164.1,2758.5,201.1,3080.3,135.6,356.4,2738.5,3039.1,157.4,67.4
0.143304,319.8,164.0,2772.3,222.3,3070.3,168.7,345.6,2757.5,3018,155.3,66.9
0.145304,319.9,166.9,2783.4,276.2,3043.7,228.3,335.4,2775.2,2998.1,153.3,66.3
0.147304,325.0,178.7,2802.6,381.2,2985.4,285.3,325.9,2791.2,2979.8,151.3,65.3
0.149304,334.1,197.6,2826.6,602.4,2918.8,251.9,317.6,2805.1,2964,149.3,64.1
0.151304,346.1,225.0,2806.0,885.3,2898.3,210.1,310.9,2816.4,2951,147.4,62.7
0.153304,353.6,278.6,2746.3,1141.9,2898.5,199.7,305.8,2824.7,2941.4,145.6,61.2
0.155304,344.8,425.3,2730.6,1334.6,2909.8,207.7,302.7,2829.8,2935.5,143.9,59.8
0.157304,285.0,808.5,2838.2,1318.9,2918.2,237.4,301.6,2831.5,2933.5,142.2,59
