time,f1,b1,f2,b2,f3,b3,f1p,f2p,f3p,f0,intensity
0.025871,307.7,81.5,2105.5,801.4,2585.9,687.8,342.7,2083.1,2717,123.4,70.6
0.027871,313.4,81.6,2096.0,523.0,2665.3,584.6,343.3,2084.5,2717.6,123.4,70.5
0.029871,323.6,85.7,2096.6,356.7,2708.7,468.5,344.2,2087,2718.5,123.3,70.5
0.031871,336.0,91.4,2098.6,272.4,2730.2,376.5,345.5,2090.4,2719.9,123.2,70.5
0.033871,344.7,95.9,2097.8,246.3,2732.6,323.5,347.1,2094.7,2721.6,123.2,70.6
0.035871,351.4,100.3,2095.7,254.6,2725.3,289.5,348.9,2099.8,2723.6,123.1,70.7
0.037871,359.8,104.5,2097.3,268.7,2722.0,252.4,351.1,2105.7,2726,123,70.8
0.039871,366.4,105.5,2102.1,265.3,2727.0,221.4,353.4,2112.3,2728.7,122.9,71
0.041871,369.9,105.1,2106.0,250.1,2736.9,195.6,355.9,2119.5,2731.7,122.8,71.2
0.043871,371.7,105.1,2108.9,241.1,2748.1,174.0,358.5,2127.2,2734.9,122.7,71.3
0.045871,374.1,104.8,2115.4,247.7,2757.0,156.5,361.2,2135.4,2738.5,122.6,71.5
0.047871,376.6,103.6,2129.1,262.0,2762.8,144.4,363.9,2143.9,2742.2,122.5,71.6
0.049871,377.8,103.0,2143.2,271.0,2766.5,143.2,366.6,2152.6,2746.1,122.4,71.6
0.051871,378.3,104.4,2154.1,275.9,2770.7,159.3,369.1,2161.5,2750.2,122.3,71.7
0.053871,379.6,108.3,2164.1,274.0,2778.3,204.6,371.6,2170.4,2754.4,122.2,71.7
0.055871,381.5,111.8,2175.4,255.7,2791.0,270.3,373.8,2179.2,2758.7,122.1,71.7
0.057871,382.9,113.9,2185.6,226.1,2803.3,312.8,375.8,2187.9,2763,121.9,71.8
0.059871,383.5,116.5,2195.6,203.8,2805.9,298.0,377.6,2196.4,2767.4,121.8,71.8
0.061871,384.2,119.9,2211.1,192.6,2801.3,252.3,379,2204.5,2771.7,121.7,71.9
0.063871,385.1,120.4,2227.7,191.1,2796.2,213.0,380.1,2212.2,2776,121.5,72
0.065871,385.3,117.2,2237.9,196.2,2793.1,190.8,380.8,2219.4,2780.3,121.4,72.1
0.067871,384.2,111.2,2242.5,213.2,2792.1,182.2,381.2,2226.1,2784.4,121.2,72.1
0.069871,381.7,103.4,2244.5,245.5,2793.6,186.0,381.1,2232.3,2788.4,121.1,72.2
0.071871,378.8,94.7,2247.6,282.7,2796.8,193.6,380.7,2237.9,2792.2,120.9,72.2
0.073871,377.2,89.7,2253.2,297.1,2801.2,195.0,379.9,2242.8,2795.8,120.8,72.3
0.075871,376.4,91.3,2259.6,289.3,2806.0,189.2,378.7,2247.1,2799.1,120.6,72.4
0.077871,375.0,99.4,2264.2,271.6,2809.4,177.7,377.1,2250.8,2802.2,120.4,72.5
0.079871,372.5,106.8,2263.8,255.4,2808.8,166.3,375.2,2253.9,2805.1,120.3,72.6
0.081871,369.2,107.3,2260.2,245.0,2805.2,161.3,373,2256.4,2807.6,120.1,72.7
0.083871,365.3,102.5,2257.2,243.7,2800.1,170.3,370.5,2258.3,2809.9,120,72.8
0.085871,360.2,95.3,2257.1,250.5,2793.4,199.7,367.7,2259.6,2811.8,119.8,72.9
0.087871,354.8,86.4,2259.0,255.4,2784.8,244.6,364.7,2260.5,2813.5,119.7,73
0.089871,352.0,79.0,2259.2,251.9,2778.3,274.3,361.6,2260.9,2814.8,119.5,73.1
0.091871,350.7,75.1,2257.5,250.3,2775.1,288.5,358.4,2260.9,2815.8,119.3,73.2
0.093871,348.8,76.1,2254.8,264.2,2773.5,299.4,355.1,2260.6,2816.4,119.2,73.3
0.095871,345.8,78.9,2251.1,292.6,2772.9,303.4,351.7,2260,2816.8,119,73.3
0.097871,342.9,78.9,2247.2,316.3,2775.2,294.2,348.4,2259.2,2816.9,118.9,73.3
0.099871,341.1,76.4,2245.6,321.0,2781.0,284.9,345.1,2258.3,2816.7,118.8,73.4
0.101871,339.1,76.0,2245.8,315.9,2791.8,285.6,342,2257.3,2816.3,118.6,73.4
0.103871,336.3,79.9,2245.3,302.9,2807.5,293.6,339,2256.2,2815.7,118.5,73.4
0.105871,334.3,82.6,2241.7,283.9,2819.4,298.6,336.2,2255.2,2814.8,118.4,73.5
0.107871,333.5,80.7,2236.2,266.2,2822.6,299.7,333.6,2254.2,2813.8,118.2,73.5
0.109871,332.7,76.9,2232.4,254.9,2818.3,299.7,331.2,2253.4,2812.7,118.1,73.5
0.111871,330.9,74.2,2233.3,245.6,2810.2,300.4,329.1,2252.7,2811.4,118,73.5
0.113871,328.6,73.2,2239.2,232.5,2805.2,300.9,327.3,2252.2,2810.1,117.9,73.5
0.115871,327.7,72.6,2245.3,216.8,2807.3,297.7,325.7,2251.9,2808.8,117.8,73.5
0.117871,327.7,72.2,2250.7,203.6,2815.2,291.9,324.5,2251.9,2807.4,117.7,73.4
0.119871,327.9,71.9,2256.0,200.6,2825.9,290.6,323.5,2252.1,2806.1,117.6,73.4
0.121871,328.0,69.8,2263.5,205.1,2837.9,293.3,322.8,2252.6,2804.9,117.5,73.3
0.123871,328.6,65.9,2271.5,204.5,2847.2,293.2,322.3,2253.3,2803.7,117.4,73.3
0.125871,329.3,62.1,2276.9,197.0,2850.7,292.5,322.1,2254.3,2802.7,117.3,73.3
0.127871,329.4,59.5,2279.6,187.4,2846.3,292.2,322.1,2255.5,2801.8,117.2,73.3
0.129871,328.4,58.3,2279.6,175.9,2836.0,284.8,322.3,2257,2801.1,117.1,73.3
0.131871,327.4,56.9,2278.6,160.1,2828.6,269.0,322.7,2258.6,2800.6,117,73.3
0.133871,327.5,54.8,2277.8,145.3,2827.4,255.8,323.2,2260.4,2800.3,116.9,73.3
0.135871,328.3,53.3,2276.5,137.3,2826.9,251.0,323.8,2262.3,2800.3,116.8,73.3
0.137871,328.7,52.6,2274.1,138.5,2821.4,255.3,324.5,2264.4,2800.4,116.7,73.2
0.139871,328.3,51.2,2271.7,144.9,2811.6,265.9,325.2,2266.5,2800.8,116.6,73.2
0.141871,327.8,48.0,2270.1,148.2,2802.2,279.0,325.9,2268.6,2801.4,116.5,73.1
0.143871,327.8,44.8,2268.9,148.5,2794.0,290.0,326.6,2270.8,2802.2,116.4,73
0.145871,327.7,43.9,2268.3,150.9,2786.4,289.7,327.2,2273,2803.2,116.3,72.9
0.147871,327.2,45.3,2269.8,153.6,2782.9,275.7,327.7,2275.1,2804.4,116.2,72.8
0.149871,326.7,46.6,2272.4,152.7,2783.9,264.8,328.1,2277.2,2805.7,116.1,72.8
0.151871,326.4,47.0,2274.3,153.0,2784.9,268.0,328.4,2279.2,2807.1,116,72.7
0.153871,326.0,48.4,2275.5,163.3,2783.2,287.9,328.5,2281.1,2808.6,115.9,72.6
0.155871,325.3,51.7,2277.1,183.1,2779.5,312.4,328.4,2282.9,2810.2,115.8,72.5
0.157871,324.7,54.9,2278.7,199.5,2777.9,328.5,328.2,2284.6,2811.8,115.7,72.4
0.159871,324.5,55.8,2279.1,202.7,2780.0,342.0,327.7,2286.1,2813.4,115.6,72.4
0.161871,323.9,55.0,2279.4,192.7,2785.6,361.4,327.1,2287.6,2814.9,115.5,72.3
0.163871,322.1,53.4,2281.8,163.3,2798.5,361.3,326.3,2288.9,2816.2,115.4,72.2
0.165871,319.8,51.5,2284.9,130.9,2811.7,332.4,325.3,2290.2,2817.4,115.3,72.1
0.167871,318.0,49.5,2286.3,108.4,2819.8,304.5,324.1,2291.4,2818.5,115.2,72
0.169871,316.9,48.7,2284.5,98.1,2822.3,292.8,322.8,2292.5,2819.2,115.1,71.9
0.171871,315.7,49.5,2279.4,97.1,2818.5,287.3,321.4,2293.6,2819.7,115.1,71.8
0.173871,314.3,51.3,2275.0,100.4,2812.7,274.3,319.9,2294.7,2819.9,115,71.7
0.175871,313.3,52.9,2276.5,99.9,2812.4,258.2,318.2,2295.8,2819.7,115,71.6
0.177871,312.6,55.2,2282.5,95.8,2816.0,248.1,316.6,2296.9,2819.1,114.9,71.5
0.179871,312.1,59.6,2289.1,93.4,2817.8,246.4,314.8,2298.2,2818.1,114.9,71.4
0.181871,311.1,64.0,2295.1,96.4,2812.5,250.6,313.1,2299.5,2816.7,114.8,71.3
0.183871,309.6,62.9,2300.2,100.7,2804.7,256.2,311.4,2300.9,2814.9,114.8,71.2
0.185871,308.2,58.6,2306.2,100.2,2804.8,261.5,309.8,2302.5,2812.6,114.8,71.1
0.187871,307.7,54.5,2316.0,99.3,2814.0,271.9,308.2,2304.2,2809.9,114.8,71.1
0.189871,308.6,51.4,2329.1,104.3,2826.4,283.4,306.6,2306.1,2806.8,114.8,71
0.191871,310.2,47.7,2342.0,114.7,2834.3,292.4,305.2,2308.2,2803.2,114.8,70.8
0.193871,310.5,44.0,2346.1,122.9,2834.4,299.9,304,2310.4,2799.2,114.8,70.6
0.195871,309.1,42.1,2341.0,124.7,2829.5,308.4,302.8,2312.9,2794.9,114.9,70.3
0.197871,306.0,43.5,2331.6,120.3,2820.9,320.6,301.8,2315.5,2790.2,114.9,70
0.199871,302.0,47.3,2326.0,112.3,2809.5,329.2,301,2318.3,2785.2,114.9,69.7
0.201871,298.5,48.8,2325.2,102.8,2799.2,322.6,300.2,2321.3,2780,115,69.5
0.203871,297.7,46.2,2324.7,98.4,2790.6,308.7,299.7,2324.4,2774.5,115,69.5
0.205871,299.7,42.6,2321.5,106.1,2776.2,295.0,299.3,2327.6,2768.9,115.1,69.5
0.207871,304.0,39.6,2315.0,122.8,2758.6,269.3,299,2330.8,2763.2,115.1,69.5
0.209871,307.4,37.4,2309.4,133.2,2750.6,246.6,298.9,2334.2,2757.5,0,69.5
0.211871,308.8,35.3,2306.9,134.4,2749.3,241.3,298.9,2337.5,2751.8,0,69.4
0.213871,310.2,34.1,2307.6,133.2,2748.4,262.6,299,2340.8,2746.2,0,69.3
0.215871,314.2,33.7,2314.6,140.8,2740.1,329.4,299.2,2344.1,2740.8,0,69.2
0.217871,318.7,33.5,2341.1,162.8,2710.8,490.4,299.4,2347.2,2735.6,0,69.3
0.219871,317.8,34.2,2382.4,163.2,2685.8,690.2,299.7,2350.2,2730.7,0,69.4
0.221871,312.8,36.4,2403.6,147.5,2712.0,748.5,300,2353,2726.1,0,69.5
0.223871,306.2,39.8,2403.8,148.1,2736.5,699.6,300.4,2355.6,2721.9,0,69.7
0.225871,298.2,45.1,2392.5,172.4,2729.6,623.2,300.7,2357.9,2718.2,0,69.7
0.227871,288.8,53.6,2370.3,210.7,2707.7,518.6,301,2360,2714.9,0,69.6
0.229871,282.7,60.2,2351.7,221.2,2701.8,456.4,301.3,2361.7,2712.2,0,69.4
0.231871,281.1,60.6,2344.9,213.0,2703.4,451.5,301.5,2363,2710.1,0,69.2
0.233871,282.9,58.3,2343.8,207.5,2703.7,473.3,301.7,2364,2708.5,0,69
0.235871,288.3,56.6,2340.7,212.2,2702.9,459.5,301.8,2364.6,2707.6,0,68.8
0.237871,297.8,52.6,2334.5,214.5,2708.0,398.0,301.8,2364.8,2707.3,0,68.8
