time,f1,b1,f2,b2,f3,b3,f1p,f2p,f3p,f0,intensity
0.025313,382.4,323.7,1154.2,462.6,2409.9,554.1,488.9,1294.8,2666.8,131.5,78.6
0.027313,432.8,310.0,1189.5,420.4,2452.1,760.4,489.3,1296.4,2671.1,131.5,78.5
0.029313,471.8,282.0,1227.3,386.9,2519.3,952.5,490.1,1298.9,2678.1,131.5,78.4
0.031313,493.8,253.6,1262.9,358.2,2596.6,1092.4,491.2,1302.6,2687.7,131.4,78.4
0.033313,505.3,227.7,1295.5,335.0,2666.4,1180.0,492.5,1307.4,2699.5,131.4,78.4
0.035313,513.1,206.5,1322.4,320.9,2713.4,1233.4,494.1,1313.4,2713.2,131.4,78.4
0.037313,519.9,193.3,1343.3,313.3,2749.9,1301.3,495.8,1320.7,2728.6,131.4,78.5
0.039313,524.8,185.9,1365.3,294.7,2824.2,1413.7,497.6,1329.5,2745,131.3,78.5
0.041313,526.2,180.3,1387.2,251.5,2954.3,1481.3,499.5,1339.7,2762.2,131.3,78.5
0.043313,525.8,173.1,1403.4,207.3,3032.0,1411.8,501.5,1351.5,2779.5,131.3,78.5
0.045313,526.0,165.1,1420.0,177.0,3035.7,1304.5,503.4,1365.1,2796.5,131.2,78.5
0.047313,526.5,159.9,1441.9,157.0,3029.6,1219.0,505.2,1380.4,2812.6,131.2,78.5
0.049313,525.8,157.9,1463.4,142.6,3023.8,1155.1,506.8,1397.6,2827.4,131.2,78.4
0.051313,524.6,156.1,1480.2,133.8,2975.3,1082.9,508.2,1416.8,2840.4,131.2,78.4
0.053313,522.5,154.8,1491.8,136.0,2892.5,1009.0,509.3,1437.9,2851.2,131.2,78.4
0.055313,518.5,155.4,1503.3,153.3,2814.6,957.4,510,1461.1,2859.3,131.1,78.4
0.057313,513.9,156.7,1520.9,188.0,2760.4,945.1,510.4,1486.3,2864.4,131.1,78.4
0.059313,511.3,154.8,1545.5,223.8,2724.7,933.1,510.4,1513.6,2866.3,131.1,78.3
0.061313,508.7,150.4,1574.9,239.9,2702.2,899.0,509.9,1542.9,2864.8,131.1,78.3
0.063313,504.1,147.6,1605.9,229.3,2706.1,893.9,508.8,1574.1,2859.6,131.1,78.3
0.065313,499.7,146.3,1631.0,206.5,2735.7,950.6,507.3,1607.1,2850.9,131.1,78.2
0.067313,498.0,142.5,1651.0,188.7,2769.4,1037.0,505.2,1641.9,2838.6,131.1,78.1
0.069313,497.1,138.0,1669.0,189.5,2777.6,1100.5,502.5,1678.1,2822.9,131.1,77.9
0.071313,493.8,136.1,1692.9,209.2,2771.8,1176.0,499.3,1715.8,2804,131.1,77.8
0.073313,488.8,134.7,1725.9,233.1,2773.9,1311.7,495.6,1754.5,2782.2,131.1,77.8
0.075313,484.5,128.9,1754.5,245.5,2781.7,1400.6,491.3,1794.2,2757.9,131.1,77.7
0.077313,479.9,119.8,1772.9,266.0,2782.9,1318.0,486.6,1834.6,2731.6,131.1,77.8
0.079313,474.4,113.1,1787.5,320.8,2778.3,1148.8,481.4,1875.3,2703.8,131.1,77.8
0.081313,471.1,111.4,1806.2,410.7,2769.2,1027.0,475.7,1916.1,2675.1,131.2,77.9
0.083313,469.9,113.2,1838.0,536.4,2745.7,921.3,469.7,1956.7,2646.1,131.2,78
0.085313,467.4,118.9,1898.8,737.4,2692.9,790.5,463.4,1996.8,2617.4,131.2,78
0.087313,462.1,127.3,1984.3,1043.8,2620.4,647.8,456.8,2036,2589.8,131.2,78.1
0.089313,456.0,136.1,2049.1,1409.2,2570.4,494.8,450,2074.2,2563.9,131.3,78.1
0.091313,450.5,144.9,2079.9,1627.7,2551.3,417.0,443,2110.9,2540.4,131.3,78.1
0.093313,442.6,156.4,2132.5,1728.9,2526.3,403.9,436,2145.9,2520,131.4,78
0.095313,431.1,171.3,2230.5,1791.4,2481.1,420.0,428.9,2179.1,2503.2,131.4,78
0.097313,420.4,186.6,2315.7,1828.9,2439.5,423.2,421.9,2210,2490.7,131.4,78
0.099313,410.5,204.9,2360.2,1838.5,2417.1,418.5,415,2238.6,2482.9,131.5,77.9
0.101313,397.7,226.6,2401.4,421.4,2402.7,1838.8,408.2,2264.6,2480.2,131.5,78
0.103313,384.7,238.3,2379.0,431.1,2475.0,1830.5,401.6,2288,2483.1,131.6,78
0.105313,376.1,230.3,2353.2,442.4,2556.2,1782.5,395.2,2308.6,2491.7,131.6,78.1
0.107313,372.0,205.8,2339.6,463.6,2594.9,1683.9,389.1,2326.3,2506.3,131.6,78.1
0.109313,368.8,175.3,2343.3,495.8,2589.5,1593.6,383.3,2341.2,2526.9,131.7,78.2
0.111313,366.2,152.0,2361.4,500.6,2567.3,1639.5,377.9,2353.2,2553.4,131.7,78.3
0.113313,365.5,142.3,2370.9,461.3,2570.9,1842.7,372.8,2362.4,2585.7,131.8,78.4
0.115313,365.4,137.5,2367.8,426.1,2600.3,2047.6,368.1,2368.9,2623.6,131.8,78.4
0.117313,363.9,128.6,2358.7,422.3,2631.6,2089.3,363.8,2372.9,2666.6,131.8,78.5
0.119313,362.2,118.8,2348.8,442.3,2636.2,2002.3,359.9,2374.5,2714.4,131.8,78.6
0.121313,362.6,114.7,2343.6,454.4,2612.9,2002.3,356.3,2373.8,2766.4,131.9,78.6
0.123313,364.4,116.2,2344.6,436.4,2581.6,2224.9,353.1,2371.2,2822,131.9,78.6
0.125313,364.6,117.5,2342.1,401.9,2589.5,2628.5,350.2,2366.9,2880.4,131.9,78.7
0.127313,362.8,116.1,2330.1,364.2,2661.4,3107.0,347.7,2361.1,2941,131.9,78.7
0.129313,361.8,115.6,2312.7,320.1,2779.4,3633.2,345.4,2354,3003,131.9,78.6
0.131313,361.5,117.0,2298.7,271.8,2967.6,4564.5,343.5,2346.1,3065.4,131.9,78.6
0.133313,359.1,116.4,2292.6,235.4,3522.0,6974.8,341.7,2337.5,3127.5,131.9,78.6
0.135313,354.6,113.5,2291.5,221.2,3566.0,60.5,340.2,2328.6,3188.5,131.9,78.5
0.137313,351.1,113.0,2290.5,220.9,3563.1,64.9,338.8,2319.6,3247.5,131.9,78.5
0.139313,349.3,114.6,2290.2,227.9,3563.1,69.7,337.6,2310.8,3303.7,131.9,78.5
0.141313,346.4,111.9,2295.9,244.4,3563.9,73.2,336.5,2302.4,3356.3,131.9,78.5
0.143313,341.4,105.2,2309.6,274.0,3565.4,73.3,335.5,2294.6,3404.7,131.9,78.5
0.145313,337.0,101.4,2326.9,307.6,3567.7,70.4,334.6,2287.6,3448.2,131.9,78.5
0.147313,333.4,99.7,2341.4,332.3,3570.8,66.9,333.7,2281.6,3486.3,131.8,78.5
0.149313,329.4,94.8,2343.9,335.8,3467.2,4813.0,332.9,2276.7,3518.4,131.8,78.5
0.151313,325.8,86.9,2331.6,318.6,3440.5,4175.5,332.1,2272.9,3544.2,131.8,78.5
0.153313,323.0,79.1,2311.1,289.5,3509.9,3634.9,331.4,2270.4,3563.5,131.8,78.5
0.155313,320.4,70.4,2290.5,258.4,3550.0,3004.0,330.6,2269,3576,131.8,78.6
0.157313,317.7,61.3,2277.2,235.6,3529.7,2455.6,330,2268.9,3581.7,131.8,78.6
0.159313,315.2,54.8,2271.5,221.4,3496.7,2159.8,329.4,2269.9,3580.6,131.8,78.6
0.161313,313.4,52.3,2271.2,213.7,3484.1,2126.2,328.8,2272,3572.9,131.8,78.6
0.163313,312.6,51.9,2273.4,208.6,3507.4,2244.7,328.4,2274.9,3558.9,131.8,78.6
0.165313,312.6,51.9,2275.4,204.6,3541.9,2409.3,328.1,2278.6,3538.8,131.8,78.6
0.167313,313.6,53.3,2276.7,203.9,3537.6,2594.0,328,2282.8,3513.1,131.8,78.6
0.169313,315.6,56.3,2277.6,204.2,3489.9,2794.4,328,2287.4,3482.3,131.8,78.6
0.171313,318.2,58.2,2277.3,200.5,3413.7,2888.7,328.3,2292.1,3447,131.8,78.6
0.173313,320.7,58.0,2276.2,193.0,3341.3,2835.9,328.9,2296.8,3407.8,131.9,78.7
0.175313,323.5,57.8,2276.2,186.6,3280.6,2755.3,329.8,2301,3365.4,131.9,78.7
0.177313,327.1,58.4,2277.9,185.4,3232.9,2689.0,331,2304.7,3320.5,131.9,78.7
0.179313,330.8,59.1,2279.6,189.3,3199.2,2656.0,332.5,2307.6,3273.8,132,78.8
0.181313,335.2,62.3,2279.4,196.4,3149.5,2700.7,334.5,2309.5,3225.9,132,78.8
0.183313,340.9,69.7,2277.0,204.0,3075.1,2802.6,336.9,2310.1,3177.7,132.1,78.8
0.185313,347.6,79.3,2274.0,211.9,3004.2,2868.5,339.7,2309.4,3129.9,132.1,78.8
0.187313,353.8,86.6,2272.7,220.7,2964.9,2916.7,343,2307,3082.9,132.2,78.8
0.189313,359.0,91.4,2275.5,231.4,2941.1,3061.7,346.7,2303,3037.5,132.3,78.8
0.191313,364.8,96.8,2284.4,247.8,2910.1,3383.0,350.9,2297.2,2994.3,132.3,78.8
0.193313,371.6,103.7,2300.1,271.9,2879.0,3877.3,355.5,2289.6,2953.5,132.4,78.8
0.195313,377.8,109.7,2314.7,294.8,2871.1,4327.5,360.6,2280.1,2915.8,132.5,78.9
0.197313,384.0,114.3,2321.5,310.6,2902.3,4572.0,366.1,2268.8,2881.4,132.5,78.9
0.199313,390.7,117.0,2318.4,324.5,2993.0,4450.8,372,2255.7,2850.5,132.6,79
0.201313,395.7,116.2,2304.7,344.6,3066.6,3825.7,378.2,2241,2823.3,132.7,79
0.203313,399.2,111.5,2277.2,369.3,3034.6,2955.2,384.6,2224.7,2799.8,132.7,79.1
0.205313,401.5,104.3,2236.3,380.8,2947.0,2238.1,391.4,2207,2780.2,132.8,79.1
0.207313,403.0,96.7,2185.5,360.1,2880.6,1711.6,398.3,2188.2,2764.2,132.8,79.1
0.209313,404.1,91.9,2142.0,302.7,2861.7,1411.9,405.3,2168.5,2751.8,132.9,79.1
0.211313,405.7,91.1,2119.3,245.0,2874.9,1321.8,412.3,2148.1,2742.7,132.9,79
0.213313,407.6,92.2,2106.3,204.8,2885.9,1308.8,419.3,2127.3,2736.6,133,78.9
0.215313,409.2,94.4,2094.8,182.7,2871.6,1264.0,426.2,2106.4,2733.2,133,78.8
0.217313,411.6,97.8,2082.4,171.8,2844.6,1153.5,432.9,2085.7,2732.1,133,78.7
0.219313,416.0,103.1,2067.3,162.0,2814.5,1009.3,439.3,2065.5,2733,133.1,78.5
0.221313,421.3,110.7,2051.2,156.5,2772.8,869.7,445.4,2046.1,2735.4,133.1,78.4
0.223313,427.3,120.7,2035.6,157.3,2730.3,746.6,451.1,2027.8,2739,133.1,78.3
0.225313,435.3,130.5,2024.7,161.9,2708.4,673.6,456.2,2011,2743.2,133.1,78.2
0.227313,444.9,136.3,2019.1,170.6,2703.0,654.0,460.9,1995.8,2747.8,133.1,78.2
0.229313,455.8,137.3,2010.3,187.4,2691.4,636.5,464.9,1982.5,2752.4,133.1,78.2
0.231313,468.3,130.8,1989.7,208.7,2662.8,572.4,468.3,1971.3,2756.6,133.1,78.2
0.233313,480.2,119.1,1963.2,220.8,2635.0,490.0,470.9,1962.4,2760.1,133.1,78.2
0.235313,490.4,109.3,1937.9,229.2,2616.0,428.3,472.9,1955.9,2762.8,133.1,78.3
0.237313,499.6,105.2,1912.3,243.4,2604.5,388.1,474,1952,2764.5,133.1,78.3
0.239313,508.2,103.8,1889.0,254.6,2600.6,361.7,474.4,1950.7,2765.1,133.1,78.4
