time,f1,b1,f2,b2,f3,b3,f1p,f2p,f3p,f0,intensity
0.025172,248.1,230.5,1388.5,194.4,2368.9,664.3,264.2,1354.7,2248.3,199.8,82.1
0.027172,252.9,269.4,1374.7,176.3,2296.2,681.3,270.3,1352,2250.8,199.1,81.8
0.029172,260.1,297.9,1358.0,156.9,2244.8,684.1,280,1347.4,2254.9,198.2,81.4
0.031172,273.0,311.8,1340.9,141.9,2212.1,651.4,293.2,1341,2260.4,197.3,80.9
0.033172,295.1,309.0,1325.2,136.2,2206.5,576.7,309.1,1332.7,2267.1,196.4,80.5
0.035172,327.6,294.1,1309.6,141.4,2224.3,489.3,327.3,1322.7,2274.7,195.4,80
0.037172,361.9,276.2,1295.5,155.4,2248.6,431.2,346.9,1310.9,2282.9,194.4,79.5
0.039172,395.7,257.9,1281.9,173.2,2272.3,404.4,367.3,1297.4,2291.3,193.3,79.1
0.041172,424.1,240.7,1268.6,188.6,2293.0,395.8,387.8,1282.3,2299.7,192.2,78.8
0.043172,444.3,227.4,1253.2,200.0,2312.4,380.0,407.5,1265.9,2307.7,191,78.5
0.045172,458.1,217.8,1232.0,207.8,2329.3,339.8,426,1248.3,2315,189.8,78.3
0.047172,464.6,210.8,1209.1,207.3,2334.6,293.5,442.7,1229.9,2321.4,188.6,78.2
0.049172,465.7,204.8,1190.1,199.4,2330.6,261.7,457.1,1210.9,2326.7,187.3,78.2
0.051172,463.9,203.5,1180.7,192.6,2326.4,256.4,469,1191.7,2330.7,186,78.3
0.053172,462.1,208.2,1178.0,194.1,2331.9,276.2,478.3,1172.8,2333.4,184.7,78.3
0.055172,462.4,218.0,1176.5,206.8,2353.1,312.9,485,1154.5,2334.7,183.3,78.4
0.057172,464.8,227.8,1170.7,228.2,2376.4,334.7,489.2,1137.3,2334.6,182,78.5
0.059172,468.3,232.6,1155.0,253.0,2372.3,318.9,491.2,1121.5,2333.3,180.6,78.6
0.061172,471.5,228.4,1129.3,266.8,2335.9,268.7,491.2,1107.4,2330.8,179.2,78.6
0.063172,473.7,218.8,1103.7,260.9,2302.6,212.6,489.8,1095.4,2327.5,177.9,78.5
0.065172,475.3,210.3,1085.0,241.9,2288.6,172.8,487.3,1085.6,2323.3,176.5,78.4
0.067172,476.4,207.3,1076.3,223.2,2292.4,156.7,484.2,1078,2318.6,175.1,78.3
0.069172,476.8,205.0,1072.2,209.0,2304.8,154.1,480.9,1072.8,2313.7,173.7,78.1
0.071172,477.3,194.5,1068.5,201.8,2315.9,156.6,477.8,1069.8,2308.6,172.4,78
0.073172,479.0,175.2,1062.4,204.4,2318.6,160.2,475.1,1068.9,2303.7,171,77.9
0.075172,482.7,155.2,1055.0,222.6,2312.3,167.8,473.3,1069.6,2299,169.7,77.9
0.077172,487.7,141.5,1053.8,254.3,2301.0,183.8,472.2,1071.7,2294.8,168.4,78
0.079172,493.2,131.2,1063.8,293.0,2289.1,210.4,472.2,1074.9,2291.1,167.1,78
0.081172,496.7,123.6,1078.2,318.4,2281.7,234.7,473,1078.6,2288,165.9,78.1
0.083172,497.0,119.3,1085.2,321.0,2277.8,244.3,474.6,1082.4,2285.6,164.6,78.2
0.085172,493.6,118.4,1084.4,307.2,2273.1,247.4,476.8,1086,2283.9,163.4,78.3
0.087172,487.9,119.2,1080.1,285.7,2268.0,253.9,479.4,1089.1,2282.8,162.2,78.4
0.089172,481.5,116.8,1076.1,261.1,2265.8,264.1,482.2,1091.3,2282.3,161.1,78.4
0.091172,476.9,109.1,1076.8,247.1,2273.0,274.3,484.9,1092.6,2282.4,160,78.4
0.093172,475.0,100.7,1084.6,256.1,2289.9,280.1,487.3,1092.8,2282.9,158.9,78.4
0.095172,475.3,94.6,1097.5,289.1,2306.4,273.4,489.2,1092.1,2283.7,157.8,78.3
0.097172,476.8,92.6,1109.4,329.1,2310.9,255.9,490.5,1090.7,2284.9,156.8,78.2
0.099172,478.2,93.4,1117.7,354.1,2306.5,236.8,491.1,1088.7,2286.3,155.8,78.1
0.101172,478.8,95.3,1116.3,344.3,2299.3,221.8,491,1086.6,2287.8,154.8,77.9
0.103172,478.5,98.9,1105.1,310.2,2292.6,209.2,490.2,1084.9,2289.5,153.9,77.7
0.105172,477.0,107.2,1090.5,267.4,2287.6,197.7,488.9,1083.9,2291.2,152.9,77.6
0.107172,476.2,120.6,1081.0,233.1,2285.5,190.4,487.1,1084.2,2293,152.1,77.4
0.109172,479.8,137.9,1077.4,209.7,2285.8,187.1,485.1,1086.3,2294.8,151.2,77.2
0.111172,488.1,154.8,1079.6,196.9,2286.5,188.9,483.1,1090.5,2296.6,150.4,77
0.113172,494.7,165.2,1085.3,187.8,2286.4,193.6,481.2,1097.1,2298.5,149.6,76.8
0.115172,495.0,163.9,1093.3,176.1,2287.0,197.0,479.8,1106.3,2300.4,148.9,76.6
0.117172,490.8,151.4,1103.9,167.4,2289.8,196.6,478.8,1118.1,2302.4,148.1,76.4
0.119172,487.0,132.8,1120.8,171.9,2295.0,192.2,478.6,1132.5,2304.4,147.4,76.2
0.121172,486.6,116.4,1145.3,195.8,2304.2,184.4,479,1149.3,2306.5,146.8,76.1
0.123172,488.0,106.6,1174.7,224.4,2316.9,177.6,480.2,1167.9,2308.6,146.1,76
0.125172,488.9,101.6,1202.3,228.0,2327.6,175.5,482,1187.9,2310.6,145.5,75.9
0.127172,488.8,100.2,1216.6,206.2,2330.3,178.3,484.4,1208.6,2312.7,144.9,75.9
0.129172,488.9,100.5,1225.2,188.1,2326.6,181.6,487.2,1229.4,2314.7,144.4,76
0.131172,489.6,101.9,1238.2,186.5,2321.6,181.2,490.3,1249.5,2316.5,143.9,76.1
0.133172,490.8,102.2,1258.8,189.3,2319.0,173.6,493.4,1268.1,2318.2,143.4,76.3
0.135172,491.9,99.2,1281.2,178.9,2319.8,154.9,496.2,1284.5,2319.7,142.9,76.5
0.137172,493.2,96.1,1296.7,160.6,2321.9,135.5,498.7,1298,2320.9,142.5,76.7
0.139172,494.6,94.0,1309.2,145.7,2320.7,123.9,500.6,1308,2321.8,142.1,76.8
0.141172,495.9,90.0,1321.0,135.0,2314.8,118.3,501.9,1314.2,2322.3,141.7,77
0.143172,497.1,82.5,1334.0,124.6,2308.5,110.7,502.3,1316.3,2322.5,141.4,77
