time,f1,b1,f2,b2,f3,b3,f1p,f2p,f3p,f0,intensity
0.025857,336.3,111.0,2122.8,273.2,2662.6,190.5,365.1,2079.7,2774.6,149.4,79.7
0.027857,346.4,108.5,2121.2,235.4,2664.3,146.0,366.3,2081.3,2773.3,149.4,79.9
0.029857,355.4,111.5,2117.9,228.5,2669.8,135.5,368.4,2083.9,2771.2,149.4,80.1
0.031857,364.1,119.2,2111.3,249.6,2680.8,146.3,371.1,2087.7,2768.5,149.4,80.2
0.033857,372.1,129.9,2106.0,290.7,2700.2,173.2,374.5,2092.5,2765.2,149.4,80.3
0.035857,379.7,142.1,2106.0,339.4,2732.1,209.5,378.6,2098.5,2761.5,149.4,80.4
0.037857,387.6,153.3,2108.9,380.3,2768.9,239.2,383.1,2105.6,2757.7,149.4,80.4
0.039857,396.5,164.4,2110.2,415.4,2803.6,254.0,388,2113.9,2754,149.4,80.4
0.041857,406.1,176.7,2113.1,441.3,2832.5,246.1,393.1,2123.4,2750.6,149.4,80.4
0.043857,415.4,189.5,2120.7,459.9,2850.5,230.1,398.4,2134,2747.8,149.4,80.5
0.045857,424.5,205.5,2131.4,484.9,2859.5,226.9,403.8,2145.9,2745.8,149.4,80.5
0.047857,429.7,221.2,2138.7,514.1,2860.9,240.2,409,2158.8,2744.9,149.4,80.6
0.049857,430.6,231.2,2139.6,544.2,2857.7,259.4,414,2172.8,2745.4,149.4,80.6
0.051857,429.9,238.1,2138.2,580.4,2852.2,276.9,418.7,2187.9,2747.4,149.4,80.7
0.053857,429.1,249.2,2141.8,624.8,2846.9,294.9,423,2203.8,2751.1,149.4,80.7
0.055857,428.3,263.9,2156.1,671.9,2843.3,322.1,426.8,2220.5,2756.8,149.4,80.7
0.057857,429.0,274.6,2179.7,710.6,2842.4,358.5,430,2237.7,2764.5,149.4,80.7
0.059857,431.2,284.1,2208.7,745.8,2842.5,407.5,432.6,2255.5,2774.4,149.4,80.7
0.061857,432.7,293.1,2238.1,775.2,2838.5,471.1,434.4,2273.4,2786.5,149.3,80.6
0.063857,432.7,294.5,2263.1,795.9,2824.3,537.4,435.7,2291.4,2800.8,149.3,80.6
0.065857,432.0,289.6,2292.4,823.6,2795.3,610.8,436.2,2309.2,2817.3,149.3,80.5
0.067857,429.8,286.4,2331.8,861.5,2751.9,694.0,436,2326.6,2835.8,149.2,80.5
0.069857,425.9,283.7,2391.9,892.0,2684.8,796.6,435.2,2343.3,2856.4,149.2,80.4
0.071857,422.3,279.5,2494.1,762.1,2582.4,1054.3,433.7,2359.1,2878.7,149.2,80.4
0.073857,419.4,279.3,2479.7,620.3,2623.7,1299.3,431.7,2373.8,2902.7,149.1,80.3
0.075857,415.8,282.9,2467.2,557.7,2702.5,1427.8,429.3,2387.2,2928.1,149.1,80.3
0.077857,412.9,284.2,2458.3,514.0,2819.5,1443.5,426.4,2399.1,2954.6,149,80.2
0.079857,411.4,285.5,2450.6,468.1,2951.3,1320.6,423.1,2409.4,2981.9,149,80.2
0.081857,410.4,293.0,2440.8,414.9,3059.9,1139.0,419.6,2417.9,3009.8,148.9,80.1
0.083857,410.7,307.8,2429.4,357.7,3145.7,955.2,416,2424.6,3037.9,148.8,80.1
0.085857,413.3,330.9,2418.9,303.3,3195.0,778.4,412.2,2429.5,3066.1,148.8,80.2
0.087857,415.1,353.5,2411.8,266.8,3215.5,673.7,408.5,2432.4,3093.8,148.7,80.2
0.089857,413.6,361.3,2407.4,241.1,3232.9,618.8,404.7,2433.6,3121,148.6,80.2
0.091857,410.6,352.5,2404.3,217.1,3253.0,577.6,401.1,2433,3147.3,148.5,80.3
0.093857,408.0,344.3,2401.0,195.8,3266.8,538.3,397.7,2430.9,3172.5,148.4,80.3
0.095857,404.6,341.1,2396.3,177.4,3273.5,508.1,394.5,2427.3,3196.4,148.3,80.3
0.097857,401.0,333.6,2391.3,164.3,3277.4,499.5,391.5,2422.6,3218.8,148.2,80.3
0.099857,397.3,321.8,2386.1,156.3,3277.7,504.6,388.7,2416.8,3239.5,148.1,80.3
0.101857,392.3,312.7,2380.3,152.5,3274.7,501.7,386.2,2410.4,3258.5,148,80.3
0.103857,387.3,305.3,2376.1,149.1,3275.8,476.1,384,2403.5,3275.8,147.9,80.3
0.105857,384.4,294.8,2374.4,144.2,3279.5,432.5,382,2396.5,3291.1,147.7,80.3
0.107857,383.0,283.5,2374.1,140.2,3279.9,395.6,380.2,2389.6,3304.7,147.6,80.2
0.109857,381.3,271.3,2373.5,136.5,3280.0,370.5,378.6,2383,3316.5,147.5,80.2
0.111857,379.3,257.2,2372.6,130.4,3281.5,345.9,377.2,2377.1,3326.7,147.3,80.2
0.113857,377.2,244.6,2372.1,125.1,3283.3,323.8,375.9,2372.1,3335.2,147.2,80.2
0.115857,373.8,234.1,2372.0,124.0,3288.3,314.7,374.7,2368.1,3342.4,147,80.2
0.117857,370.2,225.2,2372.2,126.0,3299.6,323.2,373.5,2365.4,3348.3,146.8,80.2
0.119857,368.0,216.7,2373.3,130.9,3316.5,346.0,372.3,2364,3353.2,146.7,80.2
0.121857,365.9,208.7,2375.4,141.5,3336.1,381.4,371,2364,3357.1,146.5,80.2
0.123857,362.8,201.4,2377.9,155.7,3354.6,422.1,369.7,2365.4,3360.5,146.3,80.2
0.125857,359.7,194.1,2381.7,171.1,3371.3,463.7,368.3,2368.2,3363.3,146.1,80.2
0.127857,357.6,189.5,2388.1,185.5,3378.9,485.9,366.9,2372.4,3366,145.9,80.2
0.129857,356.3,189.8,2396.6,197.8,3377.5,474.8,365.3,2377.8,3368.5,145.7,80.2
0.131857,355.9,194.7,2404.5,205.8,3374.4,441.1,363.5,2384.3,3371.3,145.5,80.2
0.133857,356.6,202.4,2410.7,211.3,3373.7,407.2,361.7,2391.6,3374.3,145.3,80.2
0.135857,357.3,212.1,2417.6,213.8,3375.4,374.5,359.8,2399.7,3377.9,145.1,80.3
0.137857,357.5,220.5,2424.3,206.3,3377.4,342.3,357.8,2408.1,3382,144.9,80.4
0.139857,358.1,226.8,2430.6,192.5,3376.1,315.4,355.7,2416.8,3386.9,144.6,80.5
0.141857,359.1,231.4,2437.2,181.2,3371.5,305.8,353.6,2425.4,3392.6,144.4,80.6
0.143857,358.4,231.0,2442.3,174.0,3371.2,319.0,351.5,2433.7,3399.1,144.2,80.7
0.145857,355.0,222.7,2446.7,168.0,3385.5,356.2,349.5,2441.5,3406.5,144,80.8
0.147857,351.3,212.7,2452.0,165.1,3417.3,401.6,347.5,2448.5,3414.8,143.7,80.8
0.149857,348.8,208.7,2456.0,161.9,3455.8,423.4,345.6,2454.5,3424,143.5,80.9
0.151857,346.9,209.3,2454.4,151.7,3484.8,405.0,343.8,2459.4,3433.9,143.3,80.9
0.153857,346.0,210.6,2448.1,135.6,3498.2,365.1,342.2,2463.1,3444.7,143.1,80.9
0.155857,346.5,212.9,2442.3,119.7,3503.4,322.8,340.8,2465.5,3456,142.8,80.9
0.157857,347.6,214.6,2440.5,109.9,3506.7,296.0,339.5,2466.5,3467.9,142.6,80.9
0.159857,346.1,207.4,2441.5,105.1,3512.6,285.0,338.5,2466.2,3480.2,142.4,80.8
0.161857,341.2,188.1,2443.3,104.8,3521.8,285.5,337.7,2464.6,3492.7,142.2,80.8
0.163857,336.3,169.8,2443.6,106.3,3530.0,292.5,337,2461.8,3505.3,142,80.7
0.165857,333.1,160.0,2440.7,102.9,3533.8,306.6,336.6,2457.9,3517.8,141.8,80.7
0.167857,331.0,156.4,2435.0,94.9,3532.7,326.0,336.3,2453.2,3530.1,141.6,80.6
0.169857,329.5,155.8,2428.4,87.0,3527.6,349.6,336.2,2447.8,3542,141.5,80.6
0.171857,329.0,159.3,2423.1,79.8,3521.4,390.0,336.2,2442,3553.4,141.3,80.6
0.173857,329.1,163.2,2421.6,74.4,3525.2,482.2,336.3,2435.9,3564,141.1,80.5
0.175857,329.6,163.9,2423.2,74.0,3496.0,740.1,336.5,2429.8,3573.8,140.9,80.5
0.177857,331.1,165.5,2425.9,79.7,3405.5,859.1,336.8,2424,3582.6,140.8,80.4
0.179857,333.5,171.3,2429.0,89.9,3382.4,891.3,337.1,2418.7,3590.2,140.7,80.4
0.181857,335.3,176.6,2434.0,101.9,3454.1,981.6,337.3,2414,3596.6,140.5,80.4
0.183857,337.1,181.9,2438.6,107.7,3615.7,1126.0,337.5,2410.1,3601.7,140.4,80.3
0.185857,341.1,192.7,2436.7,104.7,3788.0,238.4,337.7,2407.3,3605.3,140.3,80.3
0.187857,345.9,203.0,2427.8,98.0,3766.0,225.0,337.8,2405.5,3607.6,140.2,80.3
0.189857,348.2,204.4,2417.9,93.4,3747.8,202.2,337.9,2404.9,3608.3,140.1,80.3
