time,f1,b1,f2,b2,f3,b3,f1p,f2p,f3p,f0,intensity
0.025005,537.1,153.5,1468.6,781.9,2265.0,417.7,548.9,1473,2256.3,138.3,73
0.027005,540.9,155.0,1467.5,690.1,2266.0,310.5,550,1470.9,2258.3,138.2,73
0.029005,545.2,152.9,1469.1,629.9,2264.6,248.7,551.8,1467.5,2261.5,138.1,72.9
0.031005,551.9,148.4,1473.2,601.4,2263.2,223.5,554.4,1462.8,2266,137.9,72.8
0.033005,560.3,144.8,1477.5,610.0,2261.7,227.2,557.5,1456.8,2271.4,137.8,72.8
0.035005,568.0,140.7,1475.0,643.5,2258.8,237.3,561.2,1449.8,2277.7,137.7,72.8
0.037005,574.5,135.6,1458.5,671.0,2258.2,236.0,565.5,1441.8,2284.7,137.5,72.8
0.039005,580.0,135.6,1431.3,651.6,2266.9,234.0,570.2,1432.9,2292.2,137.4,72.8
0.041005,584.1,140.8,1399.3,564.9,2288.4,245.1,575.2,1423.3,2299.9,137.2,72.8
0.043005,586.4,143.4,1378.3,466.2,2316.0,265.8,580.6,1413,2307.7,137,72.8
0.045005,589.1,143.7,1372.8,416.1,2334.7,279.4,586.1,1402.4,2315.4,136.8,72.8
0.047005,593.3,148.0,1375.6,412.5,2341.2,279.9,591.6,1391.4,2322.7,136.7,72.9
0.049005,598.4,156.5,1378.0,428.3,2343.9,273.2,597.2,1380.2,2329.5,136.4,72.9
0.051005,604.0,165.5,1375.7,433.3,2349.7,265.6,602.6,1369,2335.7,136.2,72.9
0.053005,607.8,170.9,1367.1,412.4,2355.1,257.9,607.8,1357.8,2341.2,136,73
0.055005,608.8,173.4,1352.4,374.1,2355.5,250.5,612.7,1346.7,2345.9,135.8,73
0.057005,609.2,173.4,1335.3,329.8,2351.9,244.2,617.2,1336,2349.8,135.6,73
0.059005,611.6,171.1,1323.9,298.2,2350.6,242.4,621.2,1325.5,2353,135.3,73.1
0.061005,616.0,169.9,1315.7,279.7,2354.4,250.7,624.6,1315.3,2355.4,135.1,73.2
0.063005,621.0,172.7,1306.8,270.1,2361.8,275.3,627.4,1305.5,2357.2,134.8,73.2
0.065005,625.9,175.5,1299.4,260.9,2370.4,306.8,629.4,1296.2,2358.5,134.6,73.3
0.067005,630.6,174.2,1294.7,248.8,2378.7,327.9,630.8,1287.2,2359.4,134.3,73.3
0.069005,633.6,172.8,1290.2,239.2,2382.6,331.8,631.3,1278.6,2360.1,134,73.3
0.071005,635.3,177.2,1282.2,232.4,2379.1,326.6,631,1270.3,2360.8,133.8,73.3
0.073005,636.2,185.8,1273.1,224.1,2370.0,314.6,629.9,1262.4,2361.7,133.5,73.3
0.075005,635.6,192.9,1264.8,213.5,2360.5,302.1,628,1254.8,2362.9,133.2,73.3
0.077005,630.8,198.6,1252.7,199.9,2346.9,293.5,625.2,1247.4,2364.5,133,73.2
0.079005,622.7,202.8,1238.0,181.9,2327.9,288.7,621.7,1240.3,2366.7,132.7,73.2
0.081005,614.7,205.7,1226.1,160.1,2308.8,284.2,617.5,1233.3,2369.6,132.5,73.2
0.083005,609.0,211.5,1219.2,144.6,2301.7,289.9,612.5,1226.5,2373.2,132.2,73.2
0.085005,604.3,226.2,1212.4,140.8,2308.2,325.8,607,1219.8,2377.6,132,73.1
0.087005,600.3,249.9,1203.4,143.8,2328.2,407.3,600.9,1213.2,2382.7,131.8,73
0.089005,598.2,271.8,1196.7,142.8,2359.8,500.2,594.3,1206.7,2388.5,131.6,72.9
0.091005,595.0,290.0,1192.2,136.5,2405.5,568.7,587.3,1200.3,2394.8,131.4,72.9
0.093005,587.7,302.4,1186.0,133.6,2456.9,609.4,580,1194.1,2401.5,131.2,72.9
0.095005,578.5,306.5,1177.3,138.1,2496.1,643.8,572.5,1188,2408.5,131,72.9
0.097005,568.2,308.2,1170.2,145.2,2512.5,691.2,565,1182.2,2415.6,130.9,73
0.099005,554.9,309.5,1169.4,148.0,2504.9,765.6,557.4,1176.5,2422.4,130.7,73
0.101005,537.7,306.4,1172.9,149.6,2475.5,913.5,549.9,1171.2,2428.8,130.6,73.1
0.103005,525.3,302.2,1177.8,156.7,2419.5,1164.8,542.6,1166.2,2434.5,130.5,73.1
0.105005,520.4,298.3,1182.1,162.7,2373.7,1359.2,535.6,1161.6,2439.2,130.4,73.2
0.107005,516.8,281.4,1182.1,159.1,2410.4,1243.9,528.9,1157.5,2442.9,130.3,73.3
0.109005,516.3,266.5,1177.3,161.1,2472.0,1012.8,522.8,1153.8,2445.2,130.2,73.3
0.111005,519.0,265.7,1166.7,178.4,2505.8,867.8,517.1,1150.7,2446,130.2,73.4
0.113005,521.1,277.2,1152.9,198.7,2510.3,824.3,512.1,1148.2,2445.1,130.2,73.4
0.115005,520.3,295.7,1141.9,212.1,2490.9,858.9,507.6,1146.2,2442.5,130.1,73.5
0.117005,517.1,325.5,1133.4,229.5,2438.7,975.0,503.9,1144.8,2438.2,130.1,73.5
0.119005,513.9,366.1,1127.7,257.0,2362.1,1130.0,501,1144,2432.1,130.1,73.5
0.121005,510.0,410.3,1126.7,283.4,2294.1,1260.4,498.7,1143.7,2424.3,130.1,73.6
0.123005,503.2,438.9,1130.1,289.9,2274.7,1293.8,497.3,1144,2415,130,73.7
0.125005,496.7,452.4,1132.9,283.6,2296.4,1239.9,496.6,1144.8,2404.3,130,73.8
0.127005,493.3,463.4,1136.3,270.3,2342.8,1170.1,496.7,1146,2392.4,130,73.9
0.129005,491.7,460.8,1143.5,239.3,2392.7,1088.4,497.6,1147.5,2379.6,129.9,73.9
0.131005,492.5,428.2,1152.0,189.2,2417.7,950.9,499.1,1149.3,2366.2,129.9,74
0.133005,498.2,376.2,1156.6,145.2,2405.0,790.1,501.4,1151.3,2352.3,129.8,74
0.135005,504.0,335.5,1158.2,121.1,2380.0,674.6,504.3,1153.4,2338.4,129.7,74.1
0.137005,506.6,312.8,1160.0,111.4,2354.6,620.3,507.8,1155.5,2324.7,129.6,74.1
0.139005,507.8,306.6,1163.5,113.1,2340.0,624.6,511.8,1157.6,2311.6,129.4,74
0.141005,511.8,311.4,1169.0,122.2,2342.0,674.9,516.3,1159.5,2299.2,129.2,74
0.143005,516.5,319.5,1173.8,130.3,2350.8,736.3,521.2,1161.2,2287.9,129,73.9
0.145005,519.1,321.1,1175.3,132.4,2348.2,766.5,526.4,1162.7,2277.8,128.8,73.9
0.147005,522.9,303.6,1173.0,127.9,2322.7,732.2,531.9,1163.8,2269.1,128.5,73.8
0.149005,530.4,265.1,1169.1,115.7,2287.2,632.9,537.6,1164.6,2261.9,128.2,73.7
0.151005,540.4,218.6,1166.7,100.3,2258.2,528.6,543.4,1165.1,2256.2,127.9,73.7
0.153005,551.1,179.8,1164.8,92.0,2236.4,477.5,549.2,1165.1,2252.1,127.6,73.6
0.155005,563.0,150.5,1160.4,95.4,2210.8,478.8,555,1164.9,2249.6,127.2,73.5
0.157005,574.8,126.3,1152.3,108.0,2178.9,500.9,560.6,1164.3,2248.4,126.8,73.5
0.159005,581.0,105.1,1145.4,117.7,2163.7,488.1,566.1,1163.4,2248.6,126.4,73.4
0.161005,581.1,82.3,1144.7,118.7,2181.6,403.2,571.3,1162.3,2249.8,126,73.3
0.163005,579.4,64.2,1150.5,121.0,2213.7,296.6,576.3,1160.9,2252,125.6,73.3
0.165005,581.1,53.5,1155.7,128.2,2235.1,225.7,580.8,1159.5,2254.8,125.2,73.2
0.167005,585.7,45.2,1154.8,127.2,2246.8,176.2,585,1158,2258,124.8,73.1
0.169005,590.4,40.0,1152.0,116.9,2257.8,141.4,588.7,1156.6,2261.4,124.4,73.1
0.171005,593.9,42.3,1154.3,114.8,2273.8,118.6,591.9,1155.2,2264.7,124,73
0.173005,594.9,51.4,1159.8,124.2,2285.8,106.8,594.6,1154,2267.8,123.6,72.9
0.175005,594.4,58.9,1163.0,130.5,2292.8,99.3,596.7,1153,2270.4,123.2,72.7
0.177005,593.4,60.5,1163.0,127.8,2298.9,91.9,598.2,1152.3,2272.4,122.8,72.5
0.179005,591.9,56.4,1160.0,118.0,2304.5,85.2,599.1,1151.8,2273.7,122.5,72
0.181005,589.5,48.1,1154.6,103.3,2310.5,79.3,599.4,1151.7,2274.1,122.1,71.3
