time,f1,b1,f2,b2,f3,b3,f1p,f2p,f3p,f0,intensity
0.025494,351.5,1026.3,1080.3,248.3,2432.4,202.1,482.5,1135.4,2356.8,115.4,69.8
0.027494,403.5,949.7,1095.4,223.8,2424.5,199.7,485.3,1136.9,2355.4,115.5,69.8
0.029494,472.9,759.2,1120.5,200.6,2403.4,197.7,490,1139.5,2353,115.5,69.9
0.031494,524.4,543.4,1147.3,171.8,2367.2,198.3,496.3,1143,2349.9,115.5,69.9
0.033494,549.9,385.2,1165.3,138.0,2320.1,185.1,504.2,1147.3,2346,115.5,70
0.035494,560.8,291.9,1174.1,109.2,2288.0,151.8,513.3,1152.4,2341.4,115.6,70.2
0.037494,568.7,237.1,1180.9,89.2,2277.7,125.4,523.4,1158.1,2336.4,115.6,70.3
0.039494,578.3,216.1,1188.9,81.4,2282.1,117.0,534.2,1164.3,2331,115.7,70.4
0.041494,586.6,210.4,1196.3,79.2,2286.9,114.3,545.4,1170.9,2325.4,115.7,70.5
0.043494,591.1,211.4,1201.7,78.7,2289.3,110.7,556.8,1177.8,2319.7,115.8,70.5
0.045494,591.6,224.2,1204.6,82.4,2290.3,109.6,567.8,1184.7,2314.1,115.8,70.5
0.047494,590.1,261.5,1205.8,97.3,2289.3,117.0,578.4,1191.5,2308.6,115.9,70.4
0.049494,590.4,313.1,1205.8,122.7,2286.4,131.3,588.2,1198,2303.5,115.9,70.3
0.051494,592.7,339.1,1206.5,139.4,2285.5,140.1,596.9,1204.3,2298.8,116,70.2
0.053494,595.3,338.9,1207.4,143.1,2289.3,144.1,604.4,1210,2294.6,116.1,70.1
0.055494,598.9,338.9,1206.6,145.4,2297.9,153.0,610.4,1215.1,2291,116.1,70.1
0.057494,604.5,351.0,1205.1,152.4,2309.2,169.5,614.9,1219.6,2287.9,116.2,70.1
0.059494,608.3,359.6,1206.3,155.0,2317.1,178.6,617.7,1223.3,2285.4,116.3,70.1
0.061494,607.4,352.6,1210.2,146.4,2320.3,173.9,618.9,1226.3,2283.5,116.3,70.1
0.063494,602.7,334.6,1214.3,126.6,2320.3,163.1,618.5,1228.4,2282.1,116.4,70.1
0.065494,598.1,317.4,1217.0,104.2,2315.5,155.3,616.5,1229.8,2281.1,116.5,70.1
0.067494,595.2,303.1,1219.4,87.0,2304.4,150.3,613.2,1230.5,2280.6,116.5,70.1
0.069494,592.5,291.1,1222.1,78.2,2292.2,144.7,608.6,1230.5,2280.3,116.6,70
0.071494,588.1,286.5,1224.2,77.2,2283.4,141.1,603,1230,2280.3,116.6,70
0.073494,582.4,296.2,1224.9,85.5,2276.5,144.0,596.6,1229,2280.4,116.7,69.8
0.075494,578.5,314.8,1224.2,99.4,2270.7,151.2,589.7,1227.7,2280.6,116.7,69.7
0.077494,576.5,327.2,1224.6,109.2,2266.2,156.3,582.5,1226.2,2280.6,116.8,69.6
0.079494,574.6,328.0,1227.5,112.6,2263.7,159.6,575.3,1224.7,2280.6,116.8,69.5
0.081494,572.7,325.3,1232.6,116.6,2262.9,166.6,568.3,1223.3,2280.4,116.8,69.4
0.083494,571.2,324.2,1239.0,122.9,2264.4,176.6,561.7,1222.2,2279.9,116.8,69.4
0.085494,569.8,325.7,1243.3,125.8,2268.0,180.5,555.9,1221.5,2279.2,116.8,69.3
0.087494,567.2,329.0,1243.7,126.5,2271.2,179.5,550.8,1221.3,2278.1,116.8,69.3
0.089494,565.8,340.7,1238.9,134.2,2272.1,182.2,546.8,1221.8,2276.8,116.8,69.2
0.091494,568.2,363.9,1230.0,153.1,2269.3,190.5,543.7,1222.9,2275.2,116.8,69.1
0.093494,571.9,384.4,1221.9,172.0,2263.7,195.0,541.8,1224.8,2273.4,116.8,69
0.095494,571.3,386.0,1220.5,174.8,2260.4,191.0,541,1227.4,2271.4,116.8,68.9
0.097494,563.8,377.2,1223.7,165.2,2261.4,186.0,541.2,1230.8,2269.2,116.8,68.8
0.099494,549.8,371.9,1227.9,151.8,2265.5,188.0,542.3,1234.8,2267,116.8,68.8
0.101494,535.4,374.0,1231.8,141.4,2268.2,191.4,544.2,1239.4,2264.7,116.8,68.8
0.103494,525.2,380.1,1236.4,136.6,2268.6,187.2,546.7,1244.4,2262.5,116.7,68.8
0.105494,523.2,391.2,1242.7,142.6,2269.1,179.4,549.6,1249.8,2260.5,116.7,68.8
0.107494,531.4,410.1,1252.2,165.2,2269.9,173.2,552.7,1255.2,2258.6,116.7,68.7
0.109494,544.1,426.7,1262.1,193.9,2269.3,167.9,555.7,1260.6,2257,116.7,68.5
0.111494,550.3,434.8,1267.4,207.7,2267.4,161.4,558.4,1265.8,2255.6,116.7,68.4
0.113494,551.2,437.5,1269.4,211.6,2264.3,156.2,560.6,1270.5,2254.6,116.7,68.3
0.115494,552.6,434.6,1270.5,218.5,2259.3,157.2,562,1274.6,2253.9,116.7,68.2
0.117494,554.7,422.7,1271.3,226.9,2251.7,160.0,562.4,1277.8,2253.5,116.7,68.2
0.119494,552.6,402.3,1271.5,221.5,2246.8,153.4,561.7,1280,2253.6,116.7,68.2
0.121494,547.4,381.5,1272.0,207.2,2248.8,141.6,559.7,1281.1,2253.9,116.7,68.1
0.123494,543.4,362.2,1275.1,194.5,2258.7,133.2,556.4,1280.9,2254.6,116.7,68.1
0.125494,543.0,347.6,1281.8,188.3,2273.1,132.8,551.6,1279.5,2255.6,116.7,68.1
0.127494,542.0,338.9,1287.8,183.0,2284.9,135.8,545.5,1276.8,2256.8,116.8,68.1
0.129494,537.3,333.6,1286.9,174.5,2286.7,135.8,538,1272.8,2258.2,116.8,68.1
0.131494,532.1,326.4,1277.6,164.2,2279.8,135.6,529.3,1267.5,2259.8,116.8,68.1
0.133494,528.4,313.9,1260.9,151.4,2263.4,141.0,519.5,1261.2,2261.6,116.8,68.2
0.135494,524.3,298.3,1247.3,137.2,2240.6,150.5,508.8,1253.9,2263.4,116.9,68.2
0.137494,517.2,283.7,1241.8,123.7,2219.9,156.8,497.4,1245.9,2265.2,116.9,68.1
0.139494,507.8,271.8,1241.0,114.0,2209.3,159.4,485.7,1237.3,2267,116.9,68
0.141494,497.6,267.5,1239.3,113.0,2208.9,168.5,473.9,1228.4,2268.8,117,67.8
0.143494,486.6,283.4,1233.2,131.1,2226.8,195.2,462.3,1219.6,2270.5,117,67.6
0.145494,476.8,312.4,1222.2,168.0,2263.5,217.2,451.2,1211,2272,117,67.4
0.147494,469.1,335.3,1210.7,202.9,2294.9,206.0,440.9,1202.8,2273.4,117,67.3
0.149494,464.0,354.4,1200.0,216.3,2304.3,177.7,431.6,1195.5,2274.6,117.1,67.3
0.151494,456.3,380.3,1185.8,214.5,2301.2,150.9,423.6,1189.1,2275.6,117.1,67.4
0.153494,438.1,412.1,1171.4,204.8,2295.3,127.9,417.2,1183.9,2276.4,117.1,67.6
0.155494,406.7,445.5,1163.3,196.1,2290.6,112.6,412.5,1180.1,2277,117.1,67.7
0.157494,352.9,487.1,1164.0,197.8,2287.9,105.3,409.6,1177.8,2277.3,117.1,67.9
0.159494,284.6,517.6,1179.7,225.2,2291.4,108.4,408.6,1177,2277.4,117.1,68.1
