time,f1,b1,f2,b2,f3,b3,f1p,f2p,f3p,f0,intensity
0.025302,630.9,589.8,981.3,719.7,2314.1,169.3,616.7,978.8,2326.4,105.3,65.9
0.027302,634.0,542.7,979.6,694.2,2316.7,132.1,613.6,978.7,2325.9,105.7,66.9
0.029302,622.2,490.7,985.7,641.5,2319.5,100.9,608.6,978.6,2325,106.1,67.6
0.031302,599.5,448.7,993.4,571.4,2318.9,79.9,601.9,978.5,2323.8,106.6,68.3
0.033302,577.3,434.3,996.8,516.8,2312.6,71.8,593.5,978.4,2322.3,107,68.9
0.035302,565.6,449.5,989.6,488.3,2305.0,70.6,583.7,978.2,2320.4,107.5,69.6
0.037302,559.7,469.1,975.3,463.8,2304.4,67.9,572.9,977.9,2318.2,107.9,70.2
0.039302,552.2,499.1,957.7,440.8,2309.4,64.5,561.2,977.6,2315.6,108.4,70.8
0.041302,539.7,554.3,941.8,425.3,2315.7,65.0,549,977.3,2312.7,108.8,71.3
0.043302,525.7,601.6,939.9,415.1,2319.8,69.5,536.6,977,2309.5,109.3,71.9
0.045302,516.9,590.0,953.9,396.8,2322.8,71.2,524.4,976.6,2306,109.7,72.4
0.047302,510.2,535.2,972.0,363.2,2327.3,68.8,512.5,976.3,2302.2,110.2,72.8
0.049302,502.0,470.6,988.1,320.7,2332.9,68.5,501.2,975.9,2298.1,110.6,73.2
0.051302,494.3,417.5,998.4,281.1,2334.7,77.5,490.9,975.6,2293.9,111.1,73.5
0.053302,490.7,383.8,999.7,253.1,2325.4,101.2,481.6,975.4,2289.5,111.5,73.8
0.055302,489.1,356.0,994.3,231.0,2300.5,134.4,473.6,975.2,2284.9,111.9,74
0.057302,486.9,336.5,987.9,217.3,2272.4,158.9,467,975.2,2280.3,112.3,74.2
0.059302,481.6,340.2,982.6,217.2,2252.3,176.9,461.8,975.3,2275.7,112.6,74.3
0.061302,471.2,368.5,978.3,222.9,2243.3,193.8,457.9,975.7,2271.1,113,74.4
0.063302,459.2,397.8,974.0,216.9,2247.2,205.4,455.5,976.2,2266.6,113.3,74.4
0.065302,451.1,415.3,969.9,202.5,2260.0,211.4,454.5,977.1,2262.3,113.7,74.5
0.067302,448.5,436.0,967.3,193.1,2270.6,220.1,454.6,978.2,2258.2,114,74.7
0.069302,450.5,456.6,969.0,189.5,2264.6,232.1,455.9,979.6,2254.4,114.3,74.7
0.071302,454.7,452.6,973.9,179.8,2245.4,232.9,458.1,981.3,2250.9,114.6,74.8
0.073302,458.4,423.6,978.5,163.3,2228.3,220.2,461.1,983.4,2247.7,114.9,74.8
0.075302,460.1,389.9,981.6,149.3,2217.2,208.2,464.7,985.8,2244.9,115.1,74.8
0.077302,460.2,356.7,984.9,142.7,2204.4,204.0,468.7,988.6,2242.5,115.4,74.7
0.079302,461.6,324.3,990.1,139.8,2192.3,200.3,473.1,991.6,2240.5,115.6,74.7
0.081302,465.4,294.8,995.4,134.1,2193.3,192.3,477.6,994.9,2239,115.8,74.7
0.083302,470.3,274.7,999.9,129.8,2212.9,182.4,482.1,998.5,2237.8,116,74.7
0.085302,475.0,266.4,1005.6,133.6,2245.5,168.7,486.6,1002.3,2237.1,116.2,74.7
0.087302,480.2,266.8,1012.7,144.6,2274.4,149.5,491,1006.2,2236.6,116.4,74.7
0.089302,486.8,267.2,1017.1,152.4,2287.5,132.5,495.1,1010.2,2236.6,116.6,74.7
0.091302,495.6,265.9,1018.8,158.5,2289.1,122.4,499.1,1014.2,2236.8,116.8,74.7
0.093302,507.6,276.3,1021.7,178.9,2282.0,123.6,502.8,1018.2,2237.3,116.9,74.7
0.095302,521.5,297.7,1027.0,215.3,2269.4,134.1,506.4,1022,2237.9,117.1,74.7
0.097302,531.4,303.8,1031.3,233.5,2257.3,140.6,509.8,1025.7,2238.8,117.2,74.7
0.099302,533.9,285.3,1032.3,217.6,2251.0,138.1,513.2,1029.1,2239.8,117.4,74.7
0.101302,533.0,260.7,1032.0,195.9,2249.2,137.8,516.5,1032.3,2240.8,117.5,74.7
0.103302,530.5,247.5,1033.2,188.9,2247.4,151.4,519.8,1035.1,2242,117.6,74.7
0.105302,528.3,248.8,1035.0,193.8,2242.8,175.2,523.1,1037.5,2243.1,117.7,74.6
0.107302,528.1,256.9,1034.5,198.4,2238.4,193.0,526.6,1039.5,2244.4,117.8,74.6
0.109302,529.5,269.9,1032.4,206.0,2231.7,207.2,530.2,1041,2245.6,117.9,74.5
0.111302,531.8,290.9,1031.7,230.5,2215.9,230.2,533.9,1042.2,2246.9,118,74.5
0.113302,536.5,316.3,1032.9,271.7,2199.0,256.2,537.7,1042.9,2248.3,118,74.4
0.115302,543.8,331.2,1034.9,304.1,2201.3,264.5,541.6,1043.2,2249.7,118.1,74.4
0.117302,546.4,319.5,1036.5,304.4,2216.7,246.1,545.5,1043.1,2251.3,118.1,74.4
0.119302,544.9,291.4,1039.4,293.1,2233.9,205.8,549.3,1042.7,2253.1,118.2,74.3
0.121302,545.6,271.5,1044.3,296.7,2248.7,166.6,553,1042,2255,118.2,74.3
0.123302,548.4,259.0,1047.4,301.2,2263.2,139.5,556.5,1041,2257.2,118.2,74.3
0.125302,551.0,250.1,1047.5,297.8,2277.4,122.2,559.6,1039.9,2259.7,118.2,74.3
0.127302,551.9,246.5,1048.1,298.1,2286.5,112.9,562.2,1038.7,2262.5,118.2,74.3
0.129302,551.6,249.4,1050.7,307.5,2287.0,109.3,564.2,1037.4,2265.7,118.2,74.3
0.131302,551.2,249.2,1050.1,308.2,2285.1,105.8,565.6,1036.1,2269.2,118.2,74.3
0.133302,551.7,243.8,1044.9,300.7,2287.7,101.1,566.3,1034.8,2273.2,118.2,74.3
0.135302,552.9,241.7,1038.6,304.0,2293.4,100.0,566.1,1033.7,2277.5,118.1,74.4
0.137302,554.7,248.7,1034.2,327.6,2296.4,104.9,565.1,1032.7,2282.2,118.1,74.4
0.139302,557.7,258.9,1030.7,354.3,2296.1,109.8,563.3,1031.8,2287.3,118,74.4
0.141302,561.7,264.6,1026.0,368.3,2297.4,109.2,560.7,1031.2,2292.6,117.9,74.4
0.143302,565.1,266.4,1023.1,379.8,2300.1,107.6,557.3,1030.7,2298.2,117.9,74.4
0.145302,567.3,271.8,1024.7,405.7,2301.2,110.0,553.2,1030.5,2303.9,117.8,74.4
0.147302,568.5,281.1,1027.9,434.5,2302.1,112.1,548.6,1030.4,2309.7,117.7,74.3
0.149302,568.9,287.5,1026.6,445.3,2306.4,108.3,543.5,1030.6,2315.6,117.6,74.3
0.151302,567.1,289.1,1021.5,447.3,2313.5,102.2,538.2,1030.8,2321.2,117.5,74.2
0.153302,561.3,289.4,1018.7,459.2,2319.6,99.5,532.8,1031.2,2326.7,117.4,74.2
0.155302,553.4,290.7,1020.7,480.7,2324.2,97.8,527.4,1031.6,2331.8,117.3,74.1
0.157302,547.2,293.2,1021.5,493.1,2329.3,92.1,522.4,1032.1,2336.6,117.2,74
0.159302,541.5,300.0,1017.6,498.2,2335.2,84.2,517.7,1032.6,2340.7,117.1,73.8
0.161302,528.9,317.2,1016.6,510.4,2339.8,78.6,513.7,1033.1,2344.3,117,73.6
0.163302,506.2,344.0,1029.2,535.0,2342.9,77.2,510.4,1033.5,2347.1,116.9,73.4
0.165302,481.8,380.4,1048.4,571.7,2348.7,76.5,507.9,1033.8,2349.2,116.8,73.2
0.167302,462.6,429.9,1057.8,615.3,2357.4,74.6,506.4,1034,2350.5,116.7,73
0.169302,438.0,490.8,1066.2,662.2,2364.8,72.8,505.9,1034,2350.9,116.5,72.8
