time,f1,b1,f2,b2,f3,b3,f1p,f2p,f3p,f0,intensity
0.025057,477.0,222.4,1318.3,294.8,2726.3,699.1,589.5,1280.6,2418.8,125.9,76.6
0.027057,513.0,213.1,1311.7,287.5,2689.3,703.6,590.7,1282,2420.5,125.9,76.8
0.029057,538.1,190.1,1296.2,274.1,2641.7,674.7,592.8,1284.4,2423.4,125.9,77
0.031057,559.2,169.7,1276.8,268.6,2593.1,658.8,595.6,1287.6,2427.3,125.9,77.1
0.033057,581.7,156.2,1260.1,277.5,2518.6,661.3,599.2,1291.7,2432.3,125.9,77.3
0.035057,603.6,142.4,1250.6,288.4,2409.9,614.8,603.4,1296.5,2438.1,125.9,77.5
0.037057,622.0,127.1,1250.2,293.3,2335.4,531.8,608.3,1302.1,2444.7,125.9,77.6
0.039057,637.4,118.0,1262.6,306.4,2305.7,479.9,613.7,1308.2,2452,125.9,77.8
0.041057,648.8,115.1,1284.4,319.9,2279.2,462.0,619.6,1314.8,2459.7,125.9,77.9
0.043057,657.4,112.9,1309.0,311.8,2256.0,462.7,625.9,1321.9,2467.9,125.9,77.9
0.045057,667.0,110.8,1335.7,288.7,2267.7,475.0,632.4,1329.2,2476.1,125.9,78
0.047057,679.8,112.6,1364.8,259.3,2330.3,471.6,639.2,1336.6,2484.4,125.9,78
0.049057,691.5,118.6,1383.2,233.4,2393.6,424.9,646,1344.1,2492.6,125.9,78
0.051057,699.1,123.6,1390.9,218.5,2421.5,383.5,652.8,1351.6,2500.3,125.9,78
0.053057,702.9,122.4,1394.3,208.1,2431.4,366.3,659.6,1358.8,2507.6,125.8,77.9
0.055057,704.2,117.8,1396.5,199.5,2444.4,367.3,666.1,1365.7,2514.2,125.8,77.9
0.057057,703.8,114.2,1398.5,195.4,2469.3,381.2,672.3,1372.1,2519.9,125.8,77.9
0.059057,703.5,110.6,1399.5,193.8,2493.4,398.4,678.1,1378,2524.6,125.8,77.9
0.061057,704.5,106.1,1399.2,191.0,2504.7,407.1,683.4,1383.2,2528.2,125.8,77.8
0.063057,705.8,105.3,1398.3,190.8,2513.8,407.5,688.2,1387.6,2530.6,125.8,77.7
0.065057,705.6,110.6,1395.5,197.3,2527.6,418.0,692.4,1391.2,2531.5,125.8,77.6
0.067057,704.0,116.8,1390.1,202.3,2540.5,446.2,695.9,1393.9,2531.1,125.7,77.5
0.069057,702.7,117.6,1385.0,194.3,2545.8,471.4,698.6,1395.5,2529.1,125.7,77.5
0.071057,701.4,117.6,1381.7,179.1,2552.7,478.5,700.6,1396.2,2525.6,125.7,77.4
0.073057,697.5,121.4,1379.0,164.9,2569.2,477.8,701.8,1395.8,2520.5,125.7,77.4
0.075057,692.1,124.6,1377.1,151.9,2585.3,485.1,702.2,1394.2,2513.8,125.6,77.4
0.077057,687.7,123.9,1375.8,140.7,2586.8,504.8,701.8,1391.6,2505.6,125.6,77.4
0.079057,683.3,124.4,1373.7,136.8,2573.9,525.9,700.5,1387.9,2495.8,125.6,77.4
0.081057,677.9,129.3,1369.8,143.0,2556.9,536.9,698.5,1383.1,2484.6,125.5,77.5
0.083057,673.5,133.0,1365.3,152.1,2542.3,540.8,695.6,1377.3,2472.1,125.5,77.4
0.085057,670.7,132.1,1361.3,157.0,2524.4,544.9,692.1,1370.5,2458.3,125.4,77.4
0.087057,666.6,130.5,1356.7,161.7,2498.4,546.9,687.8,1362.7,2443.4,125.4,77.4
0.089057,660.1,130.5,1348.9,173.3,2461.5,536.6,682.9,1354.1,2427.5,125.3,77.4
0.091057,654.6,127.3,1338.5,186.6,2423.3,510.7,677.4,1344.6,2410.8,125.3,77.3
0.093057,650.9,119.3,1329.1,192.0,2392.6,483.2,671.4,1334.5,2393.3,125.2,77.3
0.095057,645.1,110.4,1319.4,194.0,2364.3,459.9,664.9,1323.7,2375.3,125.2,77.4
0.097057,636.5,103.6,1305.8,201.2,2339.7,438.6,658,1312.4,2357,125.1,77.5
0.099057,629.9,97.8,1290.0,210.1,2327.9,423.6,650.9,1300.7,2338.4,125,77.6
0.101057,626.6,91.7,1277.3,211.6,2326.1,421.7,643.5,1288.7,2319.8,125,77.7
0.103057,622.7,87.9,1268.3,210.4,2322.9,433.0,635.9,1276.5,2301.4,124.9,77.8
0.105057,616.9,87.1,1260.5,213.1,2312.6,451.5,628.2,1264.1,2283.2,124.9,78
0.107057,613.0,86.0,1252.9,212.3,2300.2,464.2,620.5,1251.7,2265.5,124.8,78.1
0.109057,611.9,81.9,1245.4,199.8,2287.4,476.0,612.9,1239.5,2248.4,124.8,78.3
0.111057,610.0,76.9,1239.4,185.0,2261.6,508.8,605.3,1227.3,2232,124.8,78.4
0.113057,605.6,73.7,1235.6,182.9,2203.2,572.5,597.9,1215.5,2216.4,124.7,78.4
0.115057,601.1,70.6,1229.6,190.3,2123.2,614.1,590.7,1203.9,2201.8,124.7,78.5
0.117057,598.3,65.8,1215.7,182.6,2088.8,584.5,583.7,1192.8,2188.1,124.7,78.6
0.119057,595.5,62.1,1198.0,161.1,2110.7,524.2,577,1182.1,2175.5,124.7,78.7
0.121057,590.9,61.8,1182.7,149.4,2133.2,469.5,570.6,1171.9,2164.1,124.7,78.8
0.123057,585.9,62.5,1171.0,148.9,2138.1,427.9,564.5,1162.3,2153.7,124.8,78.8
0.125057,582.4,61.5,1163.8,147.1,2133.6,400.5,558.7,1153.3,2144.5,124.8,78.9
0.127057,578.2,61.3,1156.3,140.1,2120.0,382.9,553.2,1144.8,2136.4,124.8,78.9
0.129057,570.8,64.6,1144.8,137.2,2093.3,365.8,548,1137,2129.5,124.9,78.9
0.131057,562.4,69.1,1131.1,141.0,2067.1,342.5,543.1,1129.7,2123.6,124.9,78.9
0.133057,555.7,71.7,1120.2,147.7,2055.9,331.2,538.5,1123.1,2118.6,125,78.8
0.135057,548.6,74.8,1112.7,160.9,2053.5,359.3,534.2,1117,2114.7,125.1,78.7
0.137057,538.4,81.9,1107.0,193.9,2046.0,455.1,530,1111.5,2111.5,125.2,78.6
0.139057,530.0,92.1,1105.8,260.0,2028.4,641.3,526.1,1106.5,2109.2,125.3,78.5
0.141057,527.0,99.5,1110.6,328.7,2028.3,842.0,522.3,1102,2107.4,125.4,78.5
0.143057,522.1,102.6,1104.8,330.8,2079.9,857.9,518.6,1097.9,2106.3,125.5,78.5
0.145057,512.6,105.1,1090.6,283.1,2118.3,711.6,515,1094.3,2105.6,125.6,78.5
0.147057,504.2,105.9,1077.9,243.7,2121.5,599.2,511.4,1090.9,2105.2,125.7,78.6
0.149057,499.8,103.4,1066.1,220.7,2115.1,557.2,507.8,1087.9,2105,125.8,78.6
0.151057,495.8,99.0,1059.8,211.0,2109.5,578.9,504.2,1085.1,2105,125.9,78.6
0.153057,489.3,93.8,1065.0,217.8,2095.0,668.4,500.5,1082.6,2105,126,78.6
0.155057,483.4,90.8,1080.2,245.4,2080.0,826.1,496.7,1080.1,2105,126.1,78.6
0.157057,481.3,95.2,1094.5,287.9,2119.4,1059.9,492.8,1077.8,2104.8,126.2,78.5
0.159057,481.9,111.7,1099.9,336.9,2310.9,1411.8,488.8,1075.6,2104.4,126.3,78.5
0.161057,481.8,135.0,1099.2,382.6,2668.4,1192.5,484.6,1073.4,2103.8,126.4,78.4
0.163057,477.8,152.2,1091.9,421.7,2514.8,3507.7,480.2,1071.1,2102.9,126.4,78.3
0.165057,469.0,157.3,1070.0,448.4,2330.2,2267.8,475.8,1068.9,2101.7,126.5,78.2
0.167057,458.5,163.6,1038.1,463.7,2087.1,1742.7,471.1,1066.6,2100.1,126.5,78.2
0.169057,449.7,176.8,1008.4,470.1,1997.1,1550.9,466.4,1064.3,2098.2,126.6,78.2
0.171057,444.4,184.9,991.8,466.9,1982.8,1479.3,461.5,1061.9,2095.9,126.6,78.2
0.173057,440.5,178.5,994.1,456.9,2023.9,1507.1,456.5,1059.5,2093.4,126.6,78.2
0.175057,434.2,160.3,1015.2,439.4,2076.1,1602.5,451.5,1057,2090.5,126.6,78.2
0.177057,427.1,139.8,1040.3,418.8,2057.1,1655.7,446.5,1054.4,2087.5,126.5,78.3
0.179057,424.2,128.4,1047.4,412.6,1955.7,1559.9,441.5,1051.9,2084.4,126.5,78.3
0.181057,425.2,128.3,1035.1,423.9,1863.6,1373.3,436.6,1049.3,2081.1,126.5,78.4
0.183057,427.0,136.5,1024.6,444.9,1828.3,1258.5,431.8,1046.8,2077.9,126.4,78.5
0.185057,428.7,143.7,1038.7,473.0,1847.9,1324.2,427.2,1044.4,2074.8,126.3,78.5
0.187057,431.2,145.5,1069.3,497.0,1931.1,1602.2,422.8,1042,2071.8,126.2,78.6
0.189057,434.3,146.7,1092.4,513.4,2063.9,2131.8,418.7,1039.8,2069.1,126.1,78.7
0.191057,435.5,149.7,1102.9,522.2,2015.0,2841.1,414.9,1037.7,2066.8,126,78.7
0.193057,432.6,148.1,1104.8,511.7,1978.2,2932.8,411.4,1035.9,2064.8,125.9,78.8
0.195057,428.0,140.8,1094.6,488.9,2075.1,2610.0,408.4,1034.2,2063.5,125.7,78.8
0.197057,424.7,136.3,1073.2,469.6,2052.7,2150.4,405.8,1032.9,2062.7,125.6,78.8
0.199057,421.8,137.4,1055.0,458.9,1942.0,1876.2,403.7,1031.8,2062.5,125.5,78.8
0.201057,417.5,136.1,1052.1,449.5,1847.5,1721.6,402.1,1031.1,2063.1,125.3,78.8
0.203057,413.2,127.1,1064.0,429.1,1865.8,1757.1,401,1030.7,2064.4,125.2,78.7
0.205057,410.4,117.4,1077.7,400.4,2093.2,2011.8,400.5,1030.6,2066.5,125,78.6
0.207057,408.3,112.6,1084.0,380.2,2550.7,1690.9,400.5,1031,2069.5,124.9,78.5
0.209057,406.4,110.9,1085.5,370.2,2593.5,1318.8,401,1031.7,2073.2,124.7,78.4
0.211057,404.7,107.4,1079.8,365.5,2625.6,1362.5,402.1,1032.7,2077.8,124.6,78.3
0.213057,403.1,103.8,1061.6,367.7,2305.8,2060.1,403.7,1034.2,2083.1,124.4,78.2
0.215057,402.4,106.9,1039.4,379.8,2037.1,1853.2,405.8,1035.9,2089.1,124.3,78.1
0.217057,403.6,115.9,1026.7,399.8,1928.7,1832.3,408.3,1038,2095.9,124.2,78
0.219057,406.8,124.2,1015.1,416.9,1916.5,1810.4,411.3,1040.4,2103.2,124,77.8
0.221057,409.8,128.6,990.7,420.7,1977.4,1644.4,414.6,1043.1,2111.1,123.9,77.7
0.223057,411.1,132.9,960.8,415.7,2016.1,1454.7,418.2,1046,2119.4,123.8,77.6
0.225057,412.4,138.0,945.9,417.9,2029.1,1427.9,422.1,1049.1,2128.1,123.7,77.5
0.227057,416.1,141.0,946.4,427.9,2065.3,1527.0,426.1,1052.3,2136.9,123.6,77.5
0.229057,421.4,142.4,947.8,438.2,2137.4,1583.8,430.3,1055.6,2145.9,123.5,77.4
0.231057,426.2,145.3,949.0,459.5,2166.8,1544.7,434.5,1058.9,2154.9,123.4,77.4
0.233057,429.2,145.8,958.2,491.9,2141.6,1498.8,438.8,1062.3,2163.7,123.4,77.4
0.235057,430.9,139.1,971.2,514.7,2146.1,1450.3,442.9,1065.5,2172.3,123.3,77.4
0.237057,434.0,130.7,981.3,534.9,2204.6,1412.5,446.9,1068.7,2180.5,123.2,77.4
0.239057,439.8,125.4,996.7,581.3,2274.7,1448.4,450.6,1071.6,2188.2,123.2,77.4
0.241057,445.6,119.8,1028.4,641.2,2304.0,1621.0,454.1,1074.4,2195.3,123.1,77.4
0.243057,449.1,110.0,1067.3,667.6,2272.6,1770.9,457.2,1076.9,2201.7,123.1,77.5
0.245057,453.8,100.6,1114.2,661.2,2305.4,1636.5,460,1079.1,2207.3,123.1,77.5
0.247057,463.0,96.5,1180.8,628.9,2339.9,1296.0,462.3,1080.9,2211.9,123,77.6
0.249057,473.7,95.0,1228.9,585.5,2314.2,1110.7,464.2,1082.3,2215.6,123,77.6
0.251057,480.3,91.4,1231.1,589.1,2244.4,1160.4,465.5,1083.4,2218.3,123,77.7
0.253057,483.9,86.8,1198.9,629.4,2051.4,1291.8,466.3,1084,2220,123,77.8
0.255057,488.9,85.4,1177.3,697.2,1831.3,1201.9,466.6,1084.3,2220.5,123,77.9
