time,f1,b1,f2,b2,f3,b3,f1p,f2p,f3p,f0,intensity
0.025712,386.9,65.8,1411.3,98.4,2553.8,193.1,459.3,1415.2,2538.6,144.1,75.5
0.027712,419.2,64.3,1426.0,92.5,2560.3,186.9,463.4,1419.9,2538.4,144.1,75.9
0.029712,460.8,55.2,1439.7,83.5,2552.6,155.7,470,1427.3,2537.8,144,76.2
0.031712,494.5,46.3,1450.0,76.3,2541.1,125.6,478.7,1436.6,2536.8,144,76.4
0.033712,520.3,41.6,1458.5,77.3,2530.3,105.8,489,1447,2535,143.9,76.6
0.035712,538.0,40.4,1466.9,91.6,2521.0,98.6,500.5,1457.6,2532.2,143.9,76.8
0.037712,548.7,39.3,1476.1,120.4,2513.6,99.7,512.5,1467.1,2528.1,143.8,77
0.039712,555.0,36.4,1483.4,161.7,2507.1,106.6,524.5,1474.5,2522.7,143.7,77.2
0.041712,558.1,32.0,1478.5,197.8,2499.9,118.6,535.7,1478.8,2515.7,143.7,77.4
0.043712,559.2,28.0,1460.6,217.3,2492.5,133.3,545.7,1479.1,2507.1,143.6,77.5
0.045712,559.3,25.1,1436.8,222.7,2486.8,150.5,554,1474.6,2497.2,143.5,77.6
0.047712,558.7,23.7,1416.7,210.7,2482.6,167.4,560.2,1465,2486.2,143.4,77.6
0.049712,556.4,23.5,1402.2,190.4,2474.5,180.8,564.1,1449.9,2474.4,143.3,77.6
0.051712,552.0,24.6,1393.1,179.0,2460.8,181.3,565.6,1429.6,2462.4,143.2,77.5
0.053712,547.3,26.2,1387.7,178.1,2447.8,171.2,564.6,1404.3,2450.8,143.1,77.4
0.055712,543.2,28.1,1383.6,184.8,2438.7,158.6,561.2,1374.7,2440.3,143,77.2
0.057712,539.1,30.1,1378.9,201.6,2435.2,146.2,555.7,1341.7,2431.3,142.8,77.1
0.059712,534.1,32.7,1370.4,241.7,2437.0,132.7,548.4,1306.2,2424.6,142.7,77
0.061712,529.2,36.7,1352.2,323.2,2441.6,124.5,539.5,1269.3,2420.5,142.6,76.8
0.063712,524.2,43.0,1308.6,454.0,2443.7,127.6,529.5,1232.2,2419.4,142.4,76.7
0.065712,517.5,52.2,1213.3,598.2,2438.9,131.7,518.8,1196,2421.5,142.3,76.6
0.067712,509.9,60.8,1111.5,633.4,2433.9,122.6,507.6,1161.7,2426.7,142.1,76.5
0.069712,500.8,66.5,1061.2,571.1,2435.9,115.3,496.2,1130.1,2434.6,141.9,76.3
0.071712,491.5,68.0,1060.1,491.1,2441.8,123.7,485,1101.9,2444.9,141.8,76.1
0.073712,482.0,67.1,1070.1,423.2,2448.5,151.5,474.1,1077.5,2456.9,141.6,75.9
0.075712,472.6,66.9,1074.4,387.8,2458.4,192.8,463.6,1057.3,2469.7,141.4,75.7
0.077712,461.9,68.6,1069.7,384.4,2474.4,234.4,453.5,1041.1,2482.4,141.2,75.5
0.079712,449.4,71.3,1055.3,415.3,2494.1,269.6,443.7,1028.9,2494.1,141,75.3
0.081712,438.9,73.1,1030.5,484.9,2504.3,288.6,434.4,1020.1,2503.7,140.9,75.2
0.083712,430.7,73.6,995.9,569.5,2499.2,289.4,425.2,1014.3,2510.5,140.7,75
0.085712,421.3,72.9,962.6,610.3,2488.8,269.1,416.3,1010.9,2513.8,140.5,74.8
0.087712,411.6,70.4,957.7,559.3,2485.1,242.8,407.4,1009.2,2512.9,140.3,74.6
0.089712,402.7,67.7,974.6,467.3,2485.5,229.4,398.6,1008.6,2507.6,140.1,74.2
0.091712,394.1,67.8,994.4,393.3,2485.6,240.1,389.8,1008.5,2498,139.9,73.9
0.093712,383.6,71.9,1007.1,352.3,2485.4,272.9,381.1,1008.5,2484.3,139.8,73.4
0.095712,371.1,78.7,1014.5,332.9,2486.4,317.6,372.6,1008.3,2467.1,139.6,72.9
0.097712,359.4,83.8,1021.6,321.6,2482.7,348.4,364.5,1007.5,2447.1,139.5,72.4
0.099712,346.6,83.6,1034.5,309.9,2464.4,362.8,356.9,1006.3,2425.4,139.3,71.8
0.101712,333.2,78.6,1052.5,308.2,2435.4,371.3,350.2,1004.5,2403,139.2,71.3
0.103712,323.0,75.9,1062.7,322.7,2402.4,376.5,344.6,1002.5,2381.2,139.1,70.8
0.105712,318.9,80.5,1054.4,348.4,2362.8,363.6,340.3,1000.4,2361.2,139.1,70.3
0.107712,321.8,88.8,1033.5,370.5,2329.8,337.4,337.6,998.6,2344,139,69.9
0.109712,328.4,95.0,1009.8,385.8,2311.6,315.1,336.6,997.5,2330.5,139,69.5
0.111712,336.3,101.2,987.2,401.8,2310.5,306.2,337.4,997.2,2321.4,138.9,69
0.113712,348.3,112.4,967.3,428.4,2318.6,311.5,340.2,998,2317.2,138.9,68.5
0.115712,365.5,124.2,953.3,450.0,2325.1,316.8,344.7,1000.2,2318,139,67.9
0.117712,379.4,128.0,949.8,448.0,2324.2,302.9,350.8,1003.7,2323.6,139,67.3
0.119712,387.4,127.0,952.4,441.9,2318.9,275.6,358.3,1008.4,2333.5,139,66.8
0.121712,391.1,127.1,959.2,467.6,2318.3,267.4,366.7,1014.2,2346.8,139.1,66.4
0.123712,392.0,130.8,972.6,542.8,2329.6,304.6,375.8,1020.7,2362.7,139.2,66.2
0.125712,391.1,134.3,1002.5,667.9,2353.0,407.1,384.9,1027.6,2379.9,139.3,66.1
0.127712,390.0,132.0,1056.7,799.7,2380.7,581.9,393.7,1034.5,2397.2,139.4,66.2
0.129712,390.1,128.5,1123.6,853.2,2411.2,832.0,401.7,1040.9,2413.5,139.5,66.2
0.131712,392.5,138.4,1132.0,735.6,2437.1,1008.6,408.4,1046.4,2427.5,139.6,66.2
0.133712,397.6,166.0,1088.8,570.6,2450.2,1044.0,413.5,1050.6,2438.2,139.8,66.2
0.135712,404.9,203.5,1041.5,437.2,2466.0,1012.0,416.7,1053.2,2445,139.9,66.2
0.137712,409.6,231.7,1010.3,353.8,2492.8,928.6,417.7,1054.1,2447.3,140,66.2
