time,f1,b1,f2,b2,f3,b3,f1p,f2p,f3p,f0,intensity
0.025376,283.5,105.8,1617.3,1427.7,2440.7,479.4,301.4,1916.7,2503.6,123.2,70.4
0.027376,288.3,106.7,1712.2,1418.3,2417.5,457.4,301.5,1923.4,2511.4,123.2,70.1
0.029376,293.2,101.0,1879.6,1373.3,2402.9,486.3,301.7,1934.2,2524.2,123.3,69.8
0.031376,300.7,90.3,2123.3,1013.3,2420.2,653.1,301.9,1949,2541.6,123.4,69.7
0.033376,308.4,80.2,2119.6,569.8,2604.6,685.7,302.3,1967.2,2563.2,123.5,69.6
0.035376,312.4,75.4,2106.0,401.9,2694.4,511.9,302.8,1988.3,2588.3,123.7,69.8
0.037376,312.2,76.0,2106.0,308.3,2729.7,395.7,303.4,2011.8,2616.2,123.8,70.1
0.039376,310.8,77.8,2110.6,247.4,2745.0,333.2,304.2,2036.9,2646.3,123.9,70.5
0.041376,310.2,76.6,2116.7,209.9,2752.2,308.1,305.1,2062.9,2677.7,124.1,70.9
0.043376,310.2,73.5,2123.6,193.1,2758.1,308.9,306.3,2089.3,2709.6,124.2,71.2
0.045376,310.6,71.7,2132.8,192.8,2767.7,328.8,307.6,2115.2,2741.4,124.4,71.5
0.047376,312.3,73.7,2143.9,206.0,2780.9,346.6,309.1,2140.1,2772.3,124.6,71.7
0.049376,315.1,77.7,2156.4,224.1,2795.9,344.9,310.8,2163.5,2801.8,124.8,71.8
0.051376,317.7,81.6,2169.4,237.3,2812.0,333.1,312.7,2184.8,2829.1,125,71.9
0.053376,318.9,85.2,2183.0,247.1,2829.9,343.2,314.7,2203.6,2854,125.2,71.9
0.055376,319.5,88.1,2200.1,256.8,2856.0,388.7,316.8,2219.8,2876.2,125.5,71.9
0.057376,320.4,87.0,2213.9,258.8,2883.1,440.0,319,2233.1,2895.5,125.8,71.8
0.059376,321.1,81.7,2220.7,255.8,2906.3,487.3,321.2,2243.6,2912,126,71.8
0.061376,321.6,76.4,2223.8,250.2,2933.4,534.1,323.4,2251.3,2925.6,126.4,71.7
0.063376,322.5,74.0,2226.0,246.4,2962.8,562.6,325.5,2256.4,2936.8,126.7,71.6
0.065376,323.8,72.5,2229.4,250.9,2983.1,573.5,327.6,2259.3,2945.8,127,71.5
0.067376,324.8,71.1,2235.2,264.4,2990.8,608.7,329.5,2260.2,2953.1,127.4,71.4
0.069376,325.5,71.2,2245.1,283.3,2991.6,712.8,331.3,2259.6,2959.3,127.7,71.4
0.071376,326.3,72.5,2258.2,298.6,2973.6,875.3,332.8,2257.9,2965,128.1,71.4
0.073376,327.2,71.8,2264.8,303.5,2933.1,963.1,334.1,2255.7,2970.8,128.5,71.4
0.075376,328.1,68.1,2261.3,301.1,2899.6,927.5,335.2,2253.4,2977.4,128.9,71.4
0.077376,329.3,64.0,2252.2,291.4,2892.3,835.4,336.1,2251.5,2985.2,129.3,71.4
0.079376,331.3,60.7,2244.5,275.6,2898.9,740.4,336.8,2250.4,2995,129.7,71.4
0.081376,334.2,60.0,2245.7,256.8,2910.9,686.1,337.3,2250.5,3007,130.1,71.4
0.083376,337.3,63.0,2255.7,238.2,2929.7,701.3,337.7,2252,3021.9,130.5,71.4
0.085376,341.1,69.3,2269.1,216.4,2967.5,783.7,338,2255.2,3039.7,130.9,71.4
0.087376,344.9,75.4,2279.7,193.6,3034.9,894.3,338.3,2260.2,3060.6,131.4,71.4
0.089376,347.4,80.0,2288.2,173.7,3128.3,977.7,338.5,2267,3084.6,131.8,71.4
0.091376,348.4,85.4,2297.4,157.6,3230.1,1012.7,338.9,2275.6,3111.7,132.2,71.4
0.093376,348.9,92.7,2305.3,147.8,3305.8,1002.9,339.4,2285.8,3141.4,132.6,71.4
0.095376,348.6,98.7,2311.0,149.0,3330.4,974.8,340,2297.5,3173.4,132.9,71.4
0.097376,347.3,100.0,2316.5,162.8,3314.9,954.2,340.9,2310.3,3207.2,133.3,71.3
0.099376,346.0,101.3,2327.4,184.8,3301.0,940.5,342,2324,3242.2,133.7,71.2
0.101376,346.0,105.7,2348.2,211.1,3301.6,914.9,343.3,2338.1,3277.6,134,71.1
0.103376,346.4,110.3,2371.2,230.9,3302.4,852.3,345,2352.3,3312.7,134.3,71
0.105376,345.7,113.7,2385.4,236.4,3304.6,769.1,346.8,2366.3,3346.6,134.6,70.9
0.107376,344.7,118.0,2386.0,227.0,3331.0,716.5,348.9,2379.6,3378.5,134.9,70.7
0.109376,344.7,122.8,2379.0,209.7,3384.4,699.1,351.2,2391.9,3407.6,135.1,70.6
0.111376,345.3,126.6,2372.0,193.1,3437.8,714.6,353.6,2402.9,3433.1,135.3,70.5
0.113376,346.7,131.7,2370.7,182.3,3464.4,728.4,356,2412.3,3454.3,135.5,70.3
0.115376,351.3,141.3,2375.1,173.8,3478.3,681.6,358.4,2420,3470.7,135.7,70.2
0.117376,359.8,149.5,2383.8,169.1,3483.1,595.9,360.6,2425.8,3481.5,135.8,70
0.119376,367.6,148.6,2396.4,176.4,3477.0,542.0,362.7,2429.5,3486.5,135.9,69.9
0.121376,369.9,137.4,2414.2,208.1,3456.3,569.6,364.4,2431.2,3485.4,136,69.8
0.123376,366.7,121.7,2435.2,265.4,3409.7,678.7,365.8,2430.9,3478.1,136,69.8
0.125376,361.2,106.6,2451.6,329.0,3339.4,803.4,366.7,2428.8,3464.5,136,69.8
0.127376,356.9,96.8,2451.2,360.1,3293.2,869.3,367.1,2424.9,3444.9,136,69.8
0.129376,355.5,90.6,2436.6,361.9,3283.8,896.4,366.9,2419.4,3419.5,136,69.8
0.131376,357.6,85.7,2415.8,350.1,3292.1,899.1,366.1,2412.5,3388.9,135.9,69.7
0.133376,360.5,83.7,2401.0,334.7,3300.1,873.7,364.8,2404.6,3353.7,135.8,69.6
0.135376,362.6,87.2,2397.0,321.0,3304.0,825.2,362.8,2395.8,3314.4,135.7,69.4
0.137376,364.3,95.1,2401.5,316.6,3298.7,767.7,360.4,2386.3,3272.1,135.5,69.2
0.139376,365.5,102.8,2407.7,322.0,3284.4,706.4,357.4,2376.6,3227.4,135.4,69
0.141376,365.0,107.7,2406.9,331.9,3273.0,652.9,354.1,2366.7,3181.5,135.2,68.9
0.143376,363.4,112.5,2393.0,338.2,3272.6,621.2,350.5,2356.9,3135.2,135,68.8
0.145376,361.1,117.8,2365.7,335.3,3278.5,615.5,346.7,2347.5,3089.6,134.7,68.8
0.147376,357.2,119.3,2338.1,329.6,3281.7,655.3,342.9,2338.6,3045.6,134.5,68.9
0.149376,351.3,117.8,2316.5,339.2,3272.9,760.8,339.1,2330.4,3004.2,134.3,69
0.151376,345.8,118.8,2300.7,369.7,3243.0,923.4,335.5,2323,2966.3,134,69
0.153376,341.4,123.7,2291.2,417.6,3177.9,1157.3,332.2,2316.6,2932.7,133.8,69
0.155376,336.4,129.8,2293.4,468.6,3046.3,1465.9,329.4,2311.2,2904.2,133.5,69
0.157376,328.6,136.2,2303.6,498.0,2861.8,1713.1,327,2307,2881.3,133.2,69
0.159376,316.4,144.6,2313.1,517.8,2653.1,1849.3,325.3,2303.9,2864.6,133,69
0.161376,301.4,146.3,2320.1,552.4,2447.6,1850.9,324.2,2302,2854.4,132.7,69.2
0.163376,288.2,130.0,2258.9,1717.2,2332.2,614.0,323.9,2301.4,2851,132.5,69.4
