time,f1,b1,f2,b2,f3,b3,f1p,f2p,f3p,f0,intensity
0.025272,411.5,91.1,1985.0,1067.5,2706.7,352.8,425.8,1734,2712.9,118.7,78
0.027272,422.5,91.6,1971.5,1139.9,2701.5,350.1,427.6,1733.3,2709.1,118.6,78
0.029272,432.1,94.3,1907.3,1276.0,2684.3,323.4,430.4,1732,2702.9,118.4,78
0.031272,440.7,99.6,1781.5,1424.5,2669.7,272.7,434.3,1730.4,2694.5,118.3,77.9
0.033272,449.5,103.1,1681.7,1484.2,2665.2,239.3,439,1728.6,2684.3,118.1,77.9
0.035272,457.7,102.0,1657.8,1437.3,2662.7,236.8,444.5,1726.6,2672.6,117.9,77.8
0.037272,464.4,101.0,1656.1,1327.7,2656.9,248.6,450.6,1724.7,2659.9,117.7,77.8
0.039272,467.1,105.2,1632.1,1226.2,2649.2,253.2,457.1,1722.9,2646.7,117.5,77.7
0.041272,467.5,111.0,1592.4,1146.9,2645.9,236.0,463.8,1721.5,2633.5,117.3,77.7
0.043272,469.9,109.8,1563.9,1056.3,2645.9,209.6,470.6,1720.6,2620.6,117,77.6
0.045272,474.5,101.3,1556.1,917.7,2645.3,191.2,477.1,1720.5,2608.6,116.8,77.6
0.047272,477.9,92.1,1573.4,753.2,2644.0,193.6,483.3,1721.1,2597.8,116.5,77.5
0.049272,479.2,86.5,1608.7,623.8,2641.6,218.9,489,1722.7,2588.5,116.2,77.5
0.051272,481.3,81.6,1645.7,548.6,2635.2,252.2,493.9,1725.3,2581,115.9,77.4
0.053272,485.4,75.6,1677.0,495.9,2620.5,289.6,498,1729.1,2575.3,115.7,77.4
0.055272,488.3,73.3,1699.9,454.4,2594.3,352.4,501.2,1734,2571.6,115.4,77.4
0.057272,488.8,78.7,1726.7,427.6,2552.4,492.8,503.3,1740,2569.7,115.1,77.4
0.059272,490.6,86.7,1770.3,406.7,2505.4,732.0,504.3,1747.2,2569.5,114.8,77.3
0.061272,495.8,89.3,1817.1,360.1,2481.4,994.0,504.2,1755.4,2570.8,114.5,77.3
0.063272,500.4,86.8,1843.0,317.7,2481.6,1058.9,503.1,1764.5,2573.1,114.2,77.2
0.065272,501.3,90.1,1858.1,288.7,2495.7,942.9,500.8,1774.6,2576,113.9,77.1
0.067272,501.3,104.1,1868.8,241.8,2553.2,731.5,497.6,1785.3,2579.2,113.6,76.9
0.069272,505.5,121.6,1874.2,180.3,2586.5,492.3,493.5,1796.7,2582.1,113.3,76.8
0.071272,508.5,125.0,1875.0,148.2,2603.3,392.0,488.7,1808.5,2584.3,113,76.7
0.073272,503.7,118.9,1875.3,147.6,2618.8,366.0,483.2,1820.6,2585.4,112.8,76.7
0.075272,494.2,116.0,1876.9,163.3,2621.6,347.2,477.3,1832.9,2584.8,112.5,76.6
0.077272,485.5,112.9,1878.1,180.8,2614.7,333.9,471,1845.3,2582.4,112.3,76.6
0.079272,480.4,104.1,1876.3,191.3,2602.4,332.6,464.5,1857.7,2577.9,112.1,76.5
0.081272,473.4,94.5,1873.6,200.2,2583.3,346.8,458,1870.1,2571.2,111.8,76.4
0.083272,458.4,92.4,1877.1,217.9,2556.2,384.9,451.6,1882.3,2562.2,111.7,76.3
0.085272,435.4,99.4,1895.2,243.2,2522.6,450.7,445.5,1894.5,2551.2,111.5,76.1
0.087272,418.2,110.4,1921.8,247.4,2517.7,494.0,439.7,1906.7,2538.3,111.3,76
0.089272,413.0,121.9,1939.4,237.3,2545.6,481.9,434.3,1918.9,2524.1,111.2,75.9
0.091272,414.7,127.5,1941.8,263.6,2556.1,513.6,429.4,1931.3,2508.9,111.1,75.8
0.093272,417.6,126.9,1928.8,343.9,2532.9,582.5,425,1944,2493.5,111,75.7
0.095272,419.4,123.9,1904.8,421.9,2507.1,569.4,421.2,1957.1,2478.5,110.9,75.5
0.097272,419.7,121.3,1891.7,465.3,2498.9,533.9,418,1970.8,2464.8,110.8,75.4
0.099272,416.9,122.3,1895.7,515.4,2484.5,525.2,415.2,1985.4,2453.2,110.8,75.3
0.101272,407.9,129.7,1926.2,645.0,2426.7,555.9,412.9,2000.9,2444.4,110.8,75.3
0.103272,396.6,141.3,2022.1,990.6,2283.6,532.1,410.9,2017.4,2439.3,0,75.2
0.105272,393.4,150.7,2132.5,1534.0,2209.0,387.6,409.3,2035.2,2438.6,0,75.3
0.107272,397.6,154.4,2172.0,354.1,2490.3,1600.9,407.8,2054.4,2442.9,0,75.2
0.109272,403.9,147.7,2124.9,350.5,2593.9,989.5,406.4,2074.8,2452.8,0,75.2
0.111272,409.4,130.7,2078.9,327.2,2590.0,741.6,405,2096.6,2468.5,0,75.1
0.113272,414.8,115.1,2054.3,289.4,2595.0,637.8,403.5,2119.7,2490.4,0,74.9
0.115272,420.5,105.8,2046.3,251.8,2612.4,558.7,401.7,2143.9,2518.4,0,74.6
0.117272,423.7,103.2,2046.6,227.1,2633.4,478.0,399.6,2169.1,2552.2,0,74.4
0.119272,419.5,108.5,2052.4,228.5,2650.4,406.8,397.1,2195,2591.5,0,74.2
0.121272,406.3,123.3,2068.0,281.4,2658.4,371.7,394.1,2221.4,2635.6,0,74.2
0.123272,392.1,142.6,2113.1,453.8,2644.1,393.3,390.7,2247.7,2683.8,0,74.3
0.125272,382.3,157.3,2228.8,856.3,2571.3,422.1,386.7,2273.8,2735,0,74.4
0.127272,373.6,164.1,2337.7,1343.4,2529.8,338.8,382.2,2299,2788,0,74.5
0.129272,363.0,159.7,2433.3,1514.9,2526.2,322.0,377.2,2322.9,2841.7,0,74.6
0.131272,353.5,150.1,2517.9,1672.2,2529.0,310.3,371.7,2345.1,2894.6,0,74.5
0.133272,351.4,147.9,2539.7,275.0,2592.4,2021.3,365.8,2365.1,2945.4,0,74.3
0.135272,355.4,152.5,2547.9,231.3,2728.5,2719.0,359.6,2382.4,2992.5,0,74
0.137272,361.8,156.6,2538.0,195.6,3221.1,4089.9,353.1,2396.5,3034.7,0,73.4
0.139272,366.7,155.9,2501.9,157.0,3628.7,188.8,346.5,2407.1,3070.8,0,72.8
0.141272,358.4,149.7,2467.6,119.0,3642.5,270.8,339.8,2413.8,3099.4,0,72.2
0.143272,332.2,134.7,2451.5,104.8,3724.0,359.1,333.1,2416.5,3119.7,0,71.7
0.145272,307.0,113.7,2440.9,110.6,3499.1,3177.5,326.6,2414.8,3130.8,0,71.3
0.147272,293.8,102.2,2425.7,121.1,2946.8,2768.3,320.3,2408.9,3132.3,0,71.1
0.149272,296.7,109.9,2409.3,123.0,3043.9,2517.5,314.3,2398.6,3123.8,0,70.9
0.151272,311.3,128.7,2404.6,127.1,3187.1,1958.8,308.7,2384.1,3105.4,0,70.6
0.153272,323.5,140.5,2424.3,147.2,3126.8,1618.1,303.5,2365.7,3077.3,110.5,70.2
0.155272,323.7,139.6,2475.2,168.9,3062.7,1674.4,298.8,2343.7,3040.1,110.2,69.8
0.157272,311.5,127.0,2528.0,160.4,3112.5,2445.6,294.7,2318.6,2994.6,109.9,69.3
0.159272,293.1,106.3,1886.1,2789.5,2549.3,147.9,291.1,2290.8,2941.9,109.5,68.9
0.161272,278.2,89.4,1874.7,1977.4,2535.7,148.2,288,2260.9,2883.3,109.1,68.4
0.163272,270.6,83.6,1901.5,1830.6,2494.8,140.7,285.5,2229.7,2820.4,108.7,67.9
0.165272,271.0,88.3,1913.5,1899.0,2461.7,120.9,283.4,2197.8,2754.7,108.2,67.6
0.167272,277.4,96.4,1955.6,2041.4,2449.9,114.4,281.8,2166,2688,107.8,67.3
0.169272,283.5,99.7,2048.3,2237.9,2452.3,124.5,280.6,2135,2622.2,107.3,67.1
0.171272,283.9,95.7,2144.4,2314.3,2469.6,141.3,279.7,2105.6,2558.9,106.8,66.9
0.173272,279.7,86.4,2096.3,2096.6,2502.3,145.0,279.1,2078.5,2499.9,106.3,66.6
0.175272,276.3,75.6,2026.4,1742.9,2535.5,132.3,278.7,2054.3,2447,105.9,66.2
0.177272,277.9,67.6,2017.9,1410.1,2553.5,128.5,278.5,2033.6,2401.4,105.4,65.8
0.179272,283.0,65.1,2041.0,1221.0,2552.1,149.7,278.3,2016.9,2364.6,104.9,65.4
0.181272,283.8,70.5,2099.5,1308.4,2523.3,188.1,278.3,2004.8,2337.6,104.5,65
0.183272,279.7,84.1,2243.6,1679.8,2479.3,196.2,278.3,1997.3,2321,104,64.6
0.185272,275.4,105.2,2457.8,172.1,2472.3,2015.6,278.3,1994.8,2315.5,103.6,64.2
