time,f1,b1,f2,b2,f3,b3,f1p,f2p,f3p,f0,intensity
0.025501,520.4,287.3,1147.1,295.3,2252.1,277.8,563.9,1246.9,2324.2,144.9,75.5
0.027501,542.5,220.0,1190.7,261.4,2256.6,311.2,564.4,1247.9,2326.3,144.8,76.1
0.029501,555.2,171.9,1220.2,217.9,2262.4,320.4,565.2,1249.7,2329.7,144.8,76.6
0.031501,563.6,141.9,1238.1,184.4,2267.2,327.8,566.3,1252.1,2334.5,144.8,77.1
0.033501,569.1,126.5,1250.9,168.7,2270.3,356.0,567.6,1255.3,2340.7,144.8,77.6
0.035501,572.7,119.4,1262.3,163.2,2266.8,398.0,569.2,1259.2,2348,144.8,77.9
0.037501,575.3,114.8,1272.3,154.8,2255.9,426.6,571,1264,2356.6,144.8,78.1
0.039501,576.6,112.6,1279.4,141.7,2250.7,430.5,573,1269.5,2366.2,144.8,78.3
0.041501,577.4,114.6,1286.7,130.2,2257.0,429.3,575.2,1275.9,2376.9,144.8,78.4
0.043501,578.7,120.6,1295.3,123.7,2267.3,429.2,577.4,1283.1,2388.6,144.8,78.5
0.045501,580.5,128.4,1304.2,119.8,2279.7,433.9,579.8,1291.3,2401.1,144.8,78.5
0.047501,581.7,139.0,1313.5,117.6,2304.6,460.5,582.1,1300.5,2414.3,144.9,78.5
0.049501,582.4,150.3,1322.3,117.7,2342.7,516.3,584.4,1310.6,2428.2,144.9,78.5
0.051501,584.7,160.1,1332.1,118.1,2391.8,601.2,586.5,1321.8,2442.7,144.9,78.4
0.053501,588.7,167.4,1342.6,117.8,2452.2,708.8,588.6,1334,2457.5,145,78.4
0.055501,593.1,171.3,1353.6,118.3,2536.9,826.8,590.5,1347.4,2472.7,145,78.4
0.057501,598.8,170.1,1366.7,120.6,2650.8,917.1,592.1,1361.8,2488.2,145,78.3
0.059501,604.8,166.0,1382.9,125.5,2737.7,944.9,593.4,1377.4,2503.7,145.1,78.3
0.061501,609.0,162.2,1403.0,133.2,2781.2,963.7,594.4,1394,2519.3,145.1,78.2
0.063501,610.9,156.0,1428.6,144.0,2811.5,1006.4,595,1411.9,2534.7,145.2,78.1
0.065501,611.6,145.1,1456.0,153.2,2832.1,1074.5,595.2,1430.8,2550,145.3,78.1
0.067501,610.9,131.4,1487.9,151.3,2844.5,1180.0,594.9,1450.9,2565.1,145.3,78.1
0.069501,608.8,119.8,1519.2,130.4,2864.3,1301.4,594.2,1472.1,2579.8,145.4,78.1
0.071501,606.4,110.9,1545.2,102.1,2892.5,1395.0,592.9,1494.4,2594.1,145.5,78.1
0.073501,603.9,104.8,1564.3,83.7,2885.7,1380.0,591.1,1517.6,2608,145.6,78.1
0.075501,599.0,99.7,1580.7,75.4,2836.9,1250.9,588.8,1541.8,2621.4,145.6,78.2
0.077501,592.1,93.0,1598.0,71.2,2763.9,1052.6,585.9,1567,2634.2,145.7,78.2
0.079501,586.2,84.9,1612.8,67.6,2682.7,851.3,582.4,1592.9,2646.4,145.8,78.2
0.081501,580.3,77.2,1625.5,63.4,2602.2,663.2,578.3,1619.7,2658.1,145.9,78.2
0.083501,572.7,71.3,1636.8,60.7,2540.8,531.6,573.7,1647,2669.1,146,78.1
0.085501,565.4,67.0,1647.9,61.3,2502.7,464.2,568.6,1675,2679.6,146.1,78.1
0.087501,559.3,65.7,1662.1,67.4,2483.9,447.0,562.9,1703.4,2689.5,146.2,78
0.089501,553.1,69.1,1684.0,81.6,2483.8,484.8,556.7,1732.1,2698.8,146.3,77.8
0.091501,547.1,74.7,1716.5,101.0,2505.6,563.9,550,1761.1,2707.6,146.4,77.7
0.093501,541.6,78.4,1756.3,117.8,2555.4,621.3,542.9,1790.2,2715.8,146.4,77.5
0.095501,535.1,79.2,1786.8,133.0,2590.1,574.8,535.3,1819.3,2723.7,146.5,77.4
0.097501,525.2,80.7,1812.9,162.6,2591.6,481.4,527.4,1848.3,2731.1,146.6,77.2
0.099501,514.1,84.9,1848.1,211.0,2586.2,427.6,519.2,1877,2738.1,146.7,77.1
0.101501,503.9,91.6,1902.4,255.3,2595.0,430.9,510.7,1905.3,2744.8,146.8,77
0.103501,492.2,98.5,1968.6,252.8,2628.7,459.7,502,1933.1,2751.3,147,76.9
0.105501,479.2,101.3,2012.3,206.8,2675.1,453.3,493.1,1960.3,2757.6,147.1,76.8
0.107501,466.0,100.6,2037.3,157.7,2715.3,406.6,484,1986.8,2763.8,147.2,76.7
0.109501,453.3,99.3,2052.6,125.2,2740.0,367.1,475,2012.4,2769.9,147.3,76.7
0.111501,442.2,98.3,2062.1,108.8,2755.2,363.9,465.9,2037,2776.1,147.4,76.8
0.113501,433.8,96.7,2068.2,101.7,2772.5,387.3,456.8,2060.6,2782.2,147.5,76.8
0.115501,427.9,93.6,2071.4,100.3,2795.5,399.7,447.8,2083.2,2788.5,147.6,76.8
0.117501,421.9,88.0,2072.4,104.6,2820.2,384.3,439,2104.5,2794.9,147.7,76.8
0.119501,416.4,82.1,2072.9,118.3,2836.6,368.7,430.3,2124.5,2801.5,147.8,76.8
0.121501,412.7,77.7,2074.6,142.7,2842.5,378.5,421.9,2143.2,2808.3,147.9,76.8
0.123501,409.5,73.2,2077.9,182.5,2840.1,423.4,413.8,2160.6,2815.3,148,76.8
0.125501,406.1,69.5,2082.1,239.0,2832.1,506.1,405.9,2176.7,2822.6,148.1,76.8
0.127501,402.7,68.2,2093.1,318.3,2819.9,640.7,398.4,2191.3,2830.1,148.2,76.7
0.129501,400.1,69.0,2124.0,406.6,2801.1,838.8,391.3,2204.5,2837.9,148.3,76.7
0.131501,397.8,70.0,2187.0,473.1,2750.9,1155.2,384.6,2216.4,2845.9,148.4,76.6
0.133501,394.4,71.7,2272.8,453.1,2615.4,1677.2,378.3,2226.9,2854.2,148.5,76.5
0.135501,390.7,74.7,2317.4,375.2,2496.5,2206.8,372.4,2236.1,2862.7,148.6,76.5
0.137501,386.8,78.3,2331.3,307.9,2479.6,2913.8,367,2244,2871.3,148.7,76.4
0.139501,382.4,80.6,2327.2,258.3,2647.1,4245.5,362,2250.7,2880,148.8,76.3
0.141501,376.8,81.1,2313.8,225.2,3532.3,480.8,357.5,2256.3,2888.8,148.8,76.2
0.143501,370.5,80.5,2296.6,200.9,3452.1,687.9,353.5,2260.8,2897.7,148.9,76.1
0.145501,364.7,78.7,2282.7,183.1,3362.7,798.8,349.8,2264.2,2906.4,149,76.1
0.147501,359.1,75.5,2275.6,173.1,3279.7,938.6,346.7,2266.7,2915,149,76
0.149501,354.1,71.9,2275.2,174.3,3172.8,1089.0,343.9,2268.4,2923.5,149.1,75.9
0.151501,350.3,68.5,2277.5,179.9,3064.3,1138.2,341.6,2269.4,2931.6,149.2,75.8
0.153501,347.1,65.6,2279.7,182.5,3002.8,1103.8,339.7,2269.7,2939.4,149.2,75.7
0.155501,344.3,64.6,2281.3,181.9,2987.3,1047.3,338.1,2269.5,2946.7,149.2,75.6
0.157501,342.0,65.8,2281.3,181.1,2982.4,957.6,336.9,2268.8,2953.5,149.3,75.5
0.159501,339.9,67.1,2278.3,179.3,2971.6,838.8,336.1,2267.8,2959.7,149.3,75.5
0.161501,337.3,66.4,2274.4,177.1,2960.3,733.8,335.5,2266.4,2965.2,149.3,75.4
0.163501,334.3,64.9,2271.8,175.4,2954.5,636.5,335.2,2264.9,2970,149.3,75.4
0.165501,332.0,64.4,2271.3,170.3,2953.9,547.4,335.2,2263.2,2974,149.3,75.3
0.167501,330.2,65.3,2271.5,158.7,2953.7,477.4,335.3,2261.5,2977,149.3,75.3
0.169501,328.9,67.4,2269.9,145.8,2950.1,443.0,335.7,2259.8,2979.2,149.2,75.3
0.171501,328.4,70.1,2266.2,135.8,2941.5,432.1,336.3,2258.2,2980.3,149.2,75.3
0.173501,328.0,71.8,2261.9,129.8,2927.5,429.9,337.1,2256.6,2980.4,149.2,75.3
0.175501,327.4,72.1,2258.9,130.2,2909.5,434.2,338,2255.2,2979.4,149.1,75.3
0.177501,327.5,72.5,2256.3,132.4,2887.0,433.3,339,2253.9,2977.4,149.1,75.3
0.179501,328.7,73.2,2253.6,128.4,2870.6,418.7,340.1,2252.7,2974.3,149,75.3
0.181501,329.9,74.0,2251.3,119.7,2866.9,404.6,341.3,2251.7,2970,148.9,75.3
0.183501,331.8,75.5,2248.7,112.3,2871.8,398.3,342.7,2250.9,2964.7,148.9,75.3
0.185501,334.3,76.6,2245.6,110.9,2875.5,396.0,344.1,2250.1,2958.3,148.8,75.3
0.187501,336.4,75.3,2242.4,115.0,2867.5,388.2,345.6,2249.4,2950.9,148.7,75.3
0.189501,337.8,73.1,2239.4,118.5,2846.4,361.7,347.2,2248.7,2942.4,148.6,75.4
0.191501,339.3,71.9,2236.2,113.7,2826.4,319.9,348.8,2248,2933.1,148.6,75.4
0.193501,341.2,71.1,2232.9,100.8,2816.7,281.0,350.6,2247.3,2922.8,148.5,75.5
0.195501,343.5,70.9,2230.1,87.8,2818.4,263.3,352.5,2246.3,2911.7,148.4,75.5
0.197501,347.2,71.9,2227.1,78.1,2827.9,266.0,354.4,2245.2,2899.8,148.3,75.6
0.199501,351.6,73.7,2223.8,72.4,2838.1,281.4,356.5,2243.7,2887.2,148.2,75.6
0.201501,355.3,75.1,2220.1,69.2,2841.0,301.4,358.7,2241.9,2874.1,148.2,75.6
0.203501,359.0,76.0,2215.5,67.9,2833.2,333.2,361.1,2239.6,2860.5,148.1,75.6
0.205501,363.0,75.5,2210.4,68.6,2816.0,376.1,363.6,2236.7,2846.4,148,75.6
0.207501,367.3,73.7,2205.9,69.3,2798.8,419.1,366.2,2233.2,2832.1,147.9,75.6
0.209501,372.4,73.1,2203.5,67.9,2799.2,444.2,369.1,2229.1,2817.6,147.8,75.6
0.211501,378.9,74.2,2202.6,65.2,2817.4,442.2,372.1,2224.1,2802.9,147.7,75.6
0.213501,385.7,75.1,2201.2,63.0,2840.1,410.8,375.4,2218.4,2788.2,147.6,75.6
0.215501,390.9,74.0,2198.7,63.2,2853.5,364.8,378.8,2211.7,2773.6,147.6,75.7
0.217501,395.7,70.1,2194.4,66.5,2853.6,311.7,382.5,2204.1,2759.2,147.5,75.7
0.219501,400.0,63.9,2188.1,71.9,2841.1,263.9,386.5,2195.5,2745,147.4,75.8
0.221501,403.5,57.3,2181.1,77.4,2825.0,236.5,390.6,2185.9,2731.2,147.3,75.9
0.223501,407.6,51.0,2174.0,83.9,2807.1,232.2,395,2175.2,2717.8,147.2,76
0.225501,412.3,46.5,2166.9,90.9,2786.5,240.7,399.7,2163.6,2704.9,147.1,76.1
0.227501,417.1,44.1,2156.9,97.7,2761.6,240.6,404.5,2150.9,2692.6,147,76.2
0.229501,422.2,44.0,2142.7,104.1,2736.6,226.6,409.7,2137.2,2680.8,146.9,76.4
0.231501,427.7,44.9,2126.1,110.7,2714.7,211.3,415,2122.5,2669.8,146.8,76.6
0.233501,433.0,45.7,2109.3,117.2,2695.6,200.7,420.5,2107,2659.4,146.7,76.9
0.235501,436.9,45.8,2094.9,123.3,2680.5,195.6,426.2,2090.5,2649.7,146.6,77.1
0.237501,440.4,46.0,2079.2,132.6,2665.5,191.3,432.1,2073.3,2640.8,146.5,77.3
0.239501,444.1,47.5,2062.5,143.7,2652.1,180.9,438.1,2055.4,2632.6,146.4,77.5
0.241501,447.0,48.5,2047.4,149.7,2642.8,165.3,444.2,2037,2625.2,146.3,77.7
0.243501,448.5,46.7,2031.1,147.0,2634.1,151.6,450.4,2018,2618.5,146.2,77.8
0.245501,448.9,43.1,2015.5,134.7,2624.3,143.0,456.7,1998.7,2612.5,146.1,77.9
0.247501,450.3,41.6,2004.7,117.3,2616.1,136.0,463,1979.1,2607.3,146,77.9
0.249501,453.1,44.5,1999.0,104.5,2613.4,134.4,469.2,1959.5,2602.7,145.8,77.8
0.251501,456.2,50.9,1993.4,98.3,2613.6,140.9,475.4,1939.9,2598.8,145.7,77.7
0.253501,459.6,59.4,1984.7,96.9,2611.9,155.4,481.5,1920.5,2595.4,145.6,77.6
0.255501,464.0,67.2,1973.2,99.8,2605.2,173.7,487.4,1901.5,2592.6,145.5,77.4
0.257501,470.2,74.8,1955.9,108.8,2590.6,194.7,493.2,1882.9,2590.3,145.3,77.2
0.259501,477.0,81.3,1931.3,122.4,2569.5,209.1,498.7,1865.1,2588.5,145.2,77.1
0.261501,484.0,83.7,1905.1,133.4,2552.2,210.7,504,1848,2587.1,145.1,76.9
0.263501,492.3,81.9,1880.2,142.1,2543.6,210.1,509,1831.8,2586,144.9,76.9
0.265501,500.9,78.3,1855.7,154.3,2543.3,213.8,513.6,1816.7,2585.2,144.8,76.9
0.267501,509.4,73.8,1822.9,171.2,2545.9,213.5,517.8,1802.8,2584.6,144.7,77
0.269501,516.4,69.7,1783.7,181.3,2546.3,202.0,521.6,1790.3,2584.2,144.5,77.2
0.271501,523.1,66.6,1740.3,173.7,2546.0,184.7,525,1779.2,2584,144.4,77.4
0.273501,530.2,64.7,1706.9,149.6,2549.9,169.8,527.9,1769.6,2583.9,144.3,77.6
0.275501,538.0,64.1,1690.5,127.0,2557.2,159.8,530.3,1761.7,2583.9,144.1,77.9
0.277501,546.5,65.4,1684.2,112.0,2565.3,158.4,532.2,1755.4,2583.9,144,78.1
0.279501,555.1,68.3,1682.0,104.0,2573.5,174.1,533.6,1750.9,2583.9,143.9,78.4
0.281501,564.4,71.6,1678.8,97.8,2584.5,210.4,534.4,1748.2,2583.9,143.8,78.6
0.283501,573.1,74.8,1671.9,93.6,2589.1,253.4,534.7,1747.2,2583.9,143.7,78.7
