time,f1,b1,f2,b2,f3,b3,f1p,f2p,f3p,f0,intensity
0.025719,409.4,188.0,1068.8,167.9,2445.8,239.0,416,1075.5,2432.4,112.3,74.3
0.027719,413.4,185.1,1069.6,162.1,2444.7,245.1,415.9,1076.8,2429.9,111.9,74.3
0.029719,416.4,189.3,1070.5,167.1,2439.1,263.6,415.8,1079.1,2425.9,111.5,74.2
0.031719,419.5,207.1,1075.7,194.0,2423.0,282.3,416,1082.2,2420.8,111.1,74.2
0.033719,421.8,220.1,1083.7,225.2,2400.5,273.4,416.5,1086.1,2415.1,110.7,74
0.035719,422.7,214.6,1090.8,230.2,2386.9,240.4,417.6,1090.8,2409,110.2,73.9
0.037719,422.7,202.9,1097.6,208.5,2385.0,207.2,419.5,1096.2,2403.2,109.7,73.8
0.039719,422.4,198.2,1109.7,173.5,2387.9,180.8,422.3,1102.2,2398.1,109.2,73.8
0.041719,423.4,207.5,1124.5,139.2,2390.2,164.8,426.2,1108.7,2394,108.7,73.7
0.043719,427.9,218.6,1133.1,117.6,2391.8,160.0,431.2,1115.5,2391.3,108.2,73.7
0.045719,434.9,221.9,1137.2,104.2,2395.2,164.2,437.4,1122.4,2390,107.6,73.7
0.047719,442.2,221.1,1139.3,96.1,2399.9,182.0,444.7,1129.2,2390.3,107,73.7
0.049719,449.4,219.9,1140.3,94.5,2400.2,213.1,453,1135.8,2391.8,106.4,73.8
0.051719,459.4,214.9,1141.2,98.0,2394.7,233.9,462,1141.9,2394.5,105.9,73.8
0.053719,472.7,204.2,1143.4,101.6,2395.4,221.0,471.4,1147.3,2397.9,105.2,73.8
0.055719,485.2,190.8,1146.1,102.0,2401.5,201.1,481.1,1151.9,2401.5,104.6,73.8
0.057719,495.0,177.8,1146.6,102.3,2405.5,213.4,490.6,1155.5,2404.9,104,73.6
0.059719,502.9,181.0,1144.6,114.8,2411.5,287.9,499.6,1158,2407.7,103.4,73.4
0.061719,508.9,197.7,1142.0,139.5,2415.9,435.1,507.9,1159.4,2409.3,102.8,73.2
0.063719,514.3,206.7,1142.1,158.7,2412.4,575.9,515.3,1159.8,2409.4,102.2,72.9
0.065719,518.8,197.2,1144.7,159.0,2412.4,580.4,521.6,1159.2,2407.9,101.5,72.6
0.067719,522.8,180.0,1148.5,148.2,2418.8,507.3,526.7,1157.7,2404.6,100.9,72.4
0.069719,527.1,162.7,1153.3,135.1,2417.2,459.2,530.8,1155.6,2399.7,100.3,72.1
0.071719,531.7,147.2,1158.6,124.3,2394.1,456.6,533.7,1153,2393.3,99.8,71.9
0.073719,536.3,135.2,1163.9,119.1,2360.9,440.2,535.9,1150.4,2385.9,99.2,71.6
0.075719,541.6,124.5,1169.3,117.5,2341.3,378.2,537.4,1147.8,2377.9,98.6,71.3
0.077719,547.0,116.1,1173.5,120.7,2338.2,303.7,538.5,1145.5,2369.9,98.1,71
0.079719,548.9,114.2,1168.2,127.5,2342.8,251.4,539.5,1143.8,2362.4,97.6,70.7
0.081719,543.7,119.1,1147.1,124.2,2351.3,222.0,540.6,1142.9,2356,97.1,70.4
0.083719,537.3,120.9,1133.2,106.3,2361.9,211.1,542,1142.8,2351.3,96.6,70.1
0.085719,536.8,121.3,1135.2,93.0,2371.6,207.2,543.9,1143.5,2348.4,96.1,69.8
0.087719,540.3,128.3,1144.4,88.9,2381.5,207.4,546.4,1145.1,2347.8,95.6,69.6
0.089719,543.6,142.0,1152.1,91.4,2388.9,218.4,549.4,1147.3,2349.5,95.2,69.3
0.091719,545.2,151.4,1153.1,96.9,2387.5,248.6,552.8,1150,2353.4,94.8,69
0.093719,549.6,143.8,1146.6,100.7,2370.2,295.1,556.5,1152.9,2359.3,94.4,68.7
0.095719,558.0,129.9,1140.4,101.4,2348.8,313.8,560.1,1155.6,2366.7,94.1,68.5
0.097719,568.7,120.9,1138.9,103.5,2347.7,281.7,563.5,1157.9,2375.2,93.8,68.2
0.099719,578.9,121.7,1142.5,113.9,2364.1,235.8,566.2,1159.5,2384.1,93.4,67.9
0.101719,580.9,131.1,1147.0,132.4,2377.5,214.8,567.9,1159.9,2392.8,93.2,67.6
0.103719,570.6,138.9,1146.9,150.3,2382.9,217.7,568.4,1159.1,2400.8,92.9,67.3
0.105719,559.4,136.0,1143.1,161.4,2385.7,229.4,567.5,1156.8,2407.5,92.6,66.9
0.107719,559.7,129.2,1145.6,169.5,2395.0,221.2,565,1152.9,2412.5,92.4,66.6
0.109719,567.6,124.5,1159.0,178.0,2407.9,191.1,561,1147.4,2415.4,92.2,66.2
0.111719,575.2,128.4,1177.2,191.8,2419.8,166.6,555.3,1140.6,2416.2,92,65.8
0.113719,570.3,147.5,1181.3,213.1,2428.2,162.3,548.4,1132.5,2414.9,0,65.5
0.115719,546.9,182.4,1160.0,236.2,2433.8,174.6,540.4,1123.6,2411.8,0,65.2
0.117719,512.8,220.7,1121.4,241.2,2438.9,197.8,531.8,1114.2,2407.1,0,65
0.119719,484.4,241.6,1092.7,217.9,2441.9,223.7,522.9,1104.7,2401.4,0,65
0.121719,470.1,242.9,1079.3,184.5,2433.3,254.5,514.3,1095.7,2395.2,0,65.1
0.123719,479.7,223.3,1071.6,157.5,2398.2,289.8,506.5,1087.5,2389.1,0,65.3
0.125719,499.9,191.4,1067.4,139.0,2355.4,298.0,499.9,1080.7,2383.7,0,65.5
0.127719,513.2,168.2,1067.4,126.7,2340.0,282.9,494.8,1075.5,2379.4,0,65.7
0.129719,519.4,160.6,1069.5,123.9,2352.5,273.2,491.7,1072.3,2376.7,0,65.7
0.131719,521.1,164.7,1069.9,131.1,2373.6,276.2,490.6,1071.2,2375.8,0,65.8
