time,f1,b1,f2,b2,f3,b3,f1p,f2p,f3p,f0,intensity
0.025832,543.0,99.9,1490.5,230.9,2536.6,267.0,620.8,1492,2531.7,163.8,77
0.027832,579.0,79.7,1499.7,207.5,2528.7,250.7,620.8,1490.8,2531.4,163.6,77.3
0.029832,602.9,63.9,1498.7,183.0,2518.8,224.7,621,1488.8,2531,163.5,77.7
0.031832,620.7,51.6,1492.0,159.7,2511.6,192.0,621.2,1486,2530.3,163.3,77.9
0.033832,632.0,42.8,1483.7,139.5,2511.0,165.6,621.5,1482.5,2529.4,163.1,78.1
0.035832,638.9,36.5,1475.2,121.5,2516.6,151.9,621.9,1478.3,2528.3,162.9,78.2
0.037832,642.5,33.0,1468.1,107.3,2524.6,155.8,622.3,1473.4,2527,162.7,78.3
0.039832,643.8,31.9,1462.9,96.1,2529.7,178.0,622.8,1467.8,2525.5,162.4,78.3
0.041832,643.4,33.0,1457.6,85.6,2533.3,220.9,623.4,1461.8,2523.7,162.2,78.3
0.043832,641.9,35.7,1451.0,75.7,2542.0,272.6,624.1,1455.2,2521.6,161.9,78.2
0.045832,639.8,38.8,1443.6,66.9,2555.0,307.6,625,1448.2,2519.4,161.6,78.1
0.047832,637.2,42.4,1435.7,59.7,2560.2,315.3,625.9,1440.8,2516.8,161.3,78
0.049832,634.7,46.6,1428.6,55.9,2550.0,304.3,626.9,1433.1,2514,161,77.9
0.051832,632.5,52.5,1421.9,54.8,2533.2,289.0,628.1,1425.2,2510.9,160.6,77.8
0.053832,631.2,60.3,1416.6,55.9,2521.5,284.2,629.4,1417.1,2507.6,160.3,77.7
0.055832,630.4,70.9,1410.9,59.1,2512.7,299.6,630.8,1408.9,2504,159.9,77.5
0.057832,631.4,83.4,1404.6,64.9,2502.4,337.2,632.3,1400.7,2500.1,159.5,77.4
0.059832,634.6,95.3,1398.0,74.2,2488.8,387.3,634,1392.5,2496,159,77.3
0.061832,640.3,106.6,1390.1,90.6,2471.6,447.5,635.8,1384.4,2491.6,158.6,77.2
0.063832,646.7,118.1,1380.5,116.0,2455.9,505.8,637.7,1376.4,2487,158.1,77.1
0.065832,651.7,130.4,1370.6,144.7,2444.4,542.9,639.8,1368.7,2482.3,157.6,77.1
0.067832,654.7,142.5,1361.0,170.0,2430.7,548.7,641.9,1361.1,2477.4,157.1,77
0.069832,655.6,150.2,1352.8,183.0,2414.9,525.5,644.2,1353.9,2472.4,156.5,77
0.071832,655.7,152.9,1345.2,182.0,2407.4,489.9,646.5,1347,2467.2,155.9,77
0.073832,655.6,151.7,1338.2,168.9,2418.7,461.7,649,1340.4,2462.1,155.3,77
0.075832,656.1,148.0,1331.0,152.1,2439.0,442.6,651.5,1334.1,2456.9,154.7,76.9
0.077832,656.7,144.3,1324.3,137.7,2454.6,423.9,654.1,1328.3,2451.7,154,76.9
0.079832,656.1,144.0,1319.6,131.2,2460.3,407.1,656.7,1322.8,2446.6,153.3,76.8
0.081832,654.3,148.2,1316.3,132.2,2462.8,398.8,659.4,1317.7,2441.7,152.6,76.7
0.083832,652.4,155.6,1314.5,135.8,2465.4,407.1,662,1313,2436.9,151.8,76.6
0.085832,649.9,165.7,1314.2,135.5,2465.4,430.3,664.7,1308.7,2432.3,151,76.4
0.087832,646.1,176.7,1313.0,129.2,2458.9,453.6,667.4,1304.7,2428,150.2,76.3
0.089832,643.5,185.6,1309.1,122.1,2447.7,461.1,670.1,1301.1,2424,149.4,76.1
0.091832,644.5,193.5,1302.3,119.5,2435.7,457.2,672.7,1297.8,2420.3,148.5,76
0.093832,649.4,204.6,1292.9,125.9,2427.7,460.6,675.3,1294.8,2417,147.6,75.8
0.095832,656.4,218.6,1282.3,138.4,2427.7,477.7,677.8,1292.2,2414.1,146.6,75.7
0.097832,664.2,231.0,1273.9,149.7,2436.3,507.9,680.3,1289.7,2411.6,145.7,75.6
0.099832,671.6,237.7,1272.5,154.1,2450.8,560.8,682.7,1287.6,2409.6,144.7,75.6
0.101832,680.8,240.9,1278.0,154.4,2468.8,656.3,685.1,1285.6,2408,143.7,75.5
0.103832,689.6,241.8,1284.9,152.0,2471.9,763.8,687.3,1283.8,2406.8,142.7,75.5
0.105832,695.8,241.8,1287.3,149.4,2445.4,807.1,689.5,1282.2,2406.1,141.6,75.5
0.107832,701.8,237.3,1284.2,146.3,2400.2,759.1,691.6,1280.7,2405.9,140.6,75.6
0.109832,709.1,224.0,1280.8,139.7,2367.1,687.0,693.6,1279.3,2406.1,139.5,75.7
0.111832,717.0,207.0,1281.9,132.0,2353.1,656.8,695.5,1278,2406.7,138.4,75.8
0.113832,723.4,196.9,1285.5,131.8,2355.8,695.9,697.4,1276.8,2407.6,137.3,76
0.115832,728.9,195.7,1287.3,142.4,2369.9,787.0,699.1,1275.6,2408.9,136.3,76.1
0.117832,732.6,199.2,1284.8,157.3,2388.5,882.8,700.7,1274.5,2410.5,135.2,76.2
0.119832,730.0,204.5,1279.0,163.5,2398.3,920.8,702.2,1273.3,2412.3,134.1,76.3
0.121832,719.1,209.5,1273.1,158.2,2394.9,910.2,703.7,1272.2,2414.3,133,76.3
0.123832,705.4,209.1,1270.2,144.2,2378.5,880.9,705,1271,2416.4,132,76.3
0.125832,696.2,207.2,1269.8,128.4,2362.2,859.5,706.2,1269.8,2418.6,130.9,76.2
0.127832,690.6,216.1,1270.0,115.5,2363.1,865.9,707.2,1268.6,2420.8,129.9,76.2
0.129832,686.9,241.0,1269.7,108.6,2386.1,898.5,708.2,1267.3,2423,128.9,76.1
0.131832,686.4,270.1,1268.9,104.5,2417.4,925.8,709,1266,2425,127.9,76
0.133832,691.0,281.6,1268.8,100.6,2439.5,932.9,709.6,1264.5,2426.8,127,76
0.135832,697.9,278.8,1268.1,98.0,2454.1,941.4,710,1262.9,2428.4,126,75.9
0.137832,705.0,270.2,1264.3,102.9,2467.8,978.0,710.3,1261.3,2429.7,125.1,75.9
0.139832,712.5,258.5,1256.4,115.9,2483.5,1032.9,710.3,1259.5,2430.6,124.2,75.9
0.141832,718.6,243.5,1247.0,126.4,2492.4,1043.5,710.1,1257.5,2431.1,123.4,76
0.143832,719.9,228.5,1240.9,125.0,2486.4,965.8,709.5,1255.3,2431.1,122.5,76
0.145832,717.1,214.1,1237.1,120.6,2465.4,826.1,708.7,1253,2430.6,121.7,76
0.147832,713.5,192.4,1233.4,119.8,2427.6,663.9,707.5,1250.4,2429.6,121,75.9
0.149832,713.0,168.7,1231.3,119.9,2396.5,565.5,706,1247.6,2428,120.2,75.8
0.151832,714.2,152.1,1232.9,116.0,2387.7,548.0,704,1244.6,2425.9,119.5,75.6
0.153832,711.7,147.4,1236.0,108.3,2398.9,597.9,701.5,1241.2,2423.1,118.9,75.3
0.155832,702.9,152.6,1237.9,100.4,2418.2,693.7,698.6,1237.5,2419.7,118.2,75.1
0.157832,691.9,162.6,1238.7,94.0,2431.5,810.1,695.2,1233.5,2415.7,117.6,74.8
0.159832,685.4,172.3,1238.6,90.4,2429.7,894.8,691.2,1229,2411.2,117,74.6
0.161832,680.3,187.0,1237.1,91.6,2438.7,964.2,686.6,1224.2,2406,116.5,74.4
0.163832,672.7,204.6,1230.6,102.5,2454.2,1024.0,681.4,1219,2400.3,115.9,74.3
0.165832,666.3,212.8,1216.8,121.9,2449.2,1058.9,675.6,1213.3,2394.1,115.4,74.3
0.167832,662.3,208.3,1199.1,133.2,2417.5,1029.3,669.1,1207.1,2387.5,114.9,74.2
0.169832,656.9,199.3,1188.8,124.2,2378.4,934.1,661.9,1200.5,2380.3,114.5,74.1
0.171832,646.0,196.2,1185.8,106.1,2331.3,737.5,654.1,1193.4,2372.8,114,74
0.173832,630.0,199.7,1186.7,88.3,2290.0,479.5,645.6,1185.8,2364.9,113.6,73.9
0.175832,618.8,201.3,1187.9,75.4,2276.2,315.0,636.5,1177.8,2356.8,113.2,73.9
0.177832,614.1,204.0,1186.4,68.0,2283.5,239.9,626.7,1169.2,2348.4,112.7,73.9
0.179832,609.5,210.0,1180.3,64.8,2298.6,217.1,616.3,1160.2,2339.8,112.3,73.9
0.181832,602.1,213.8,1166.9,64.5,2315.8,228.6,605.3,1150.7,2331.1,111.9,73.9
0.183832,597.4,209.6,1148.5,65.9,2330.0,278.9,593.7,1140.8,2322.4,111.5,73.9
0.185832,597.5,201.8,1135.6,64.9,2336.0,344.9,581.6,1130.5,2313.6,111,73.8
0.187832,597.3,196.0,1130.7,60.4,2332.6,375.4,569.1,1119.9,2304.9,110.6,73.6
0.189832,588.2,198.8,1129.0,55.5,2324.8,343.9,556.2,1108.9,2296.3,110.1,73.2
0.191832,559.5,215.6,1124.5,53.8,2313.4,280.4,543,1097.7,2287.8,109.7,72.8
0.193832,514.7,234.8,1114.5,60.4,2297.0,216.7,529.5,1086.4,2279.5,109.2,72.4
0.195832,482.2,242.6,1097.8,82.4,2280.3,172.9,515.9,1074.9,2271.4,108.7,72.2
0.197832,469.9,247.4,1068.0,129.9,2264.9,147.5,502.3,1063.4,2263.7,108.2,72.1
0.199832,468.3,253.6,1022.2,177.6,2252.2,131.9,488.7,1051.9,2256.2,107.7,72.2
0.201832,466.5,249.1,979.9,179.5,2244.1,117.6,475.2,1040.5,2249.1,107.2,72.3
0.203832,467.2,228.7,967.9,155.8,2241.9,108.8,462,1029.4,2242.4,106.7,72.4
0.205832,470.8,216.1,970.3,144.6,2242.7,107.4,449.1,1018.5,2236,106.1,72.3
0.207832,471.6,218.3,973.1,151.0,2242.9,116.3,436.6,1008,2230.1,105.6,72.1
0.209832,464.5,232.6,969.7,174.3,2237.6,141.0,424.7,997.9,2224.6,105.1,71.8
0.211832,450.9,247.2,962.3,201.0,2221.5,180.2,413.5,988.4,2219.5,104.5,71.4
0.213832,437.4,250.2,963.0,202.3,2205.4,204.1,403,979.5,2214.9,104,71
0.215832,425.1,257.9,970.6,191.1,2204.8,208.5,393.3,971.4,2210.8,103.5,70.5
0.217832,409.4,289.0,979.0,185.7,2213.2,210.1,384.5,963.9,2207.2,103,70
0.219832,390.8,342.1,983.8,187.2,2215.0,209.8,376.8,957.4,2204,102.5,69.4
0.221832,373.9,389.6,981.6,184.1,2202.0,198.6,370.1,951.7,2201.3,102,68.7
0.223832,363.0,397.0,974.4,167.8,2186.3,175.6,364.5,947,2199.1,101.5,68
0.225832,350.2,395.7,967.3,150.1,2179.7,157.4,360.2,943.3,2197.4,101.1,67.2
0.227832,330.6,422.3,959.4,141.3,2181.9,155.4,357,940.6,2196.2,100.7,66.3
0.229832,305.7,493.7,950.6,147.1,2191.5,179.5,355.1,939,2195.5,100.3,65.3
0.231832,273.5,623.6,939.8,170.1,2211.4,248.2,354.5,938.5,2195.2,99.9,63.9
