time,f1,b1,f2,b2,f3,b3,f1p,f2p,f3p,f0,intensity
0.025732,414.9,122.5,2131.2,177.9,2568.6,225.2,395.1,2140.4,2618.8,98.4,68.5
0.027732,405.1,120.5,2128.0,161.5,2583.1,210.8,394.4,2143.9,2621.2,98.1,68.5
0.029732,390.7,122.4,2122.8,151.7,2604.9,198.3,393.2,2149.7,2625.1,97.9,68.5
0.031732,379.9,126.4,2121.8,156.8,2626.4,194.2,391.5,2157.6,2630.6,97.7,68.5
0.033732,376.9,126.9,2127.5,169.5,2639.1,198.5,389.3,2167.5,2637.6,97.4,68.4
0.035732,376.5,124.1,2139.6,183.3,2646.9,209.0,386.8,2179.2,2646.1,97.1,68.3
0.037732,374.7,121.6,2159.6,201.4,2654.4,227.3,383.8,2192.5,2656,96.9,68.2
0.039732,372.0,124.1,2203.1,229.3,2671.2,256.0,380.4,2207.1,2667.4,96.6,68.1
0.041732,372.3,132.9,2265.8,227.8,2703.8,268.8,376.6,2222.9,2680,96.3,68
0.043732,374.6,136.8,2297.0,200.5,2726.7,250.4,372.5,2239.5,2693.8,96,67.9
0.045732,375.2,131.9,2303.6,183.4,2734.7,233.6,368.2,2256.7,2708.8,95.6,67.9
0.047732,373.2,121.9,2306.8,183.0,2739.9,242.1,363.5,2274.1,2724.7,95.3,67.8
0.049732,368.3,111.5,2322.0,205.1,2751.8,300.6,358.7,2291.5,2741.5,95,67.8
0.051732,361.6,112.0,2354.7,229.6,2772.3,393.3,353.7,2308.7,2759,94.6,67.8
0.053732,355.3,122.5,2376.4,222.8,2793.9,426.8,348.6,2325.3,2777,94.3,67.8
0.055732,348.8,132.5,2377.0,201.7,2808.8,404.9,343.5,2341.2,2795.4,94,67.9
0.057732,340.9,131.6,2373.1,187.2,2825.9,399.0,338.3,2356.3,2813.9,93.6,68
0.059732,331.0,116.4,2374.6,186.3,2862.5,418.6,333.2,2370.3,2832.4,93.3,68.1
0.061732,323.5,101.9,2378.1,193.8,2894.8,389.4,328.2,2383.1,2850.6,93,68.2
0.063732,318.8,100.0,2379.8,192.8,2902.1,340.6,323.4,2394.6,2868.4,92.6,68.3
0.065732,314.0,106.9,2377.7,181.7,2900.2,308.9,318.7,2404.8,2885.4,92.3,68.3
0.067732,308.7,113.6,2374.2,172.7,2896.5,301.9,314.3,2413.7,2901.6,92,68.4
0.069732,303.4,106.8,2376.2,179.1,2893.7,334.0,310.1,2421.2,2916.8,91.7,68.4
0.071732,300.2,82.1,2395.4,211.0,2889.6,432.5,306.3,2427.5,2930.7,91.4,68.3
0.073732,300.3,64.1,2422.7,237.0,2878.8,538.6,302.8,2432.6,2943.2,91.2,68.3
0.075732,299.8,60.6,2434.3,228.4,2876.5,565.4,299.7,2436.5,2954.2,90.9,68.3
0.077732,297.8,66.6,2433.4,206.3,2888.7,554.1,297,2439.5,2963.6,90.7,68.2
0.079732,296.1,73.4,2432.1,192.8,2913.7,576.5,294.6,2441.7,2971.4,90.5,68.2
0.081732,295.5,71.0,2434.7,196.2,2964.5,626.6,292.6,2443.1,2977.5,90.3,68.2
0.083732,295.7,59.5,2438.7,213.8,2997.9,603.9,291,2444,2981.9,90.1,68.3
0.085732,294.2,52.8,2439.4,212.1,2999.7,533.4,289.8,2444.5,2984.8,90,68.5
0.087732,291.5,55.6,2436.9,189.8,3001.8,480.6,288.8,2444.7,2986.1,89.9,68.6
0.089732,288.6,65.4,2434.0,166.5,3007.7,455.8,288.2,2444.7,2986.1,89.8,68.7
0.091732,287.6,76.8,2433.0,153.0,3013.3,465.2,287.8,2444.7,2984.8,89.7,68.8
0.093732,289.5,78.1,2438.7,155.5,3010.3,496.3,287.5,2444.8,2982.6,89.7,68.9
0.095732,291.5,67.4,2452.0,169.4,2992.0,486.0,287.5,2445,2979.5,89.7,69
0.097732,290.5,59.8,2457.9,170.2,2980.6,435.7,287.5,2445.4,2976,89.8,69.1
0.099732,287.9,58.5,2453.9,159.2,2982.8,408.0,287.5,2446,2972.1,89.9,69.3
0.101732,285.0,60.5,2447.0,149.7,2992.4,414.1,287.5,2446.8,2968.2,90,69.4
0.103732,283.6,61.8,2444.1,152.2,3005.4,459.4,287.5,2447.9,2964.5,90.1,69.4
0.105732,284.5,58.3,2454.2,173.1,3013.2,514.1,287.3,2449.3,2961.4,90.3,69.6
0.107732,285.2,54.3,2474.3,186.9,3011.9,475.9,286.9,2450.7,2958.9,90.5,69.8
0.109732,283.7,55.1,2481.6,172.4,3011.4,397.6,286.3,2452.3,2957.4,90.8,69.9
0.111732,280.6,58.8,2479.2,159.5,3011.9,371.7,285.5,2453.9,2957,91,70.1
0.113732,277.6,63.3,2476.2,166.7,3005.1,416.2,284.4,2455.5,2957.9,91.3,70.1
0.115732,277.3,68.0,2478.5,206.3,2956.5,520.4,283,2457,2960.2,91.6,70
0.117732,281.5,70.6,2487.4,273.6,2860.3,563.7,281.2,2458.2,2964,92,69.9
0.119732,284.4,71.5,2489.5,307.6,2808.6,542.0,279.2,2459.1,2969.2,92.3,69.9
0.121732,282.6,73.4,2482.3,292.5,2801.0,571.5,276.9,2459.7,2975.9,92.7,70
0.123732,277.7,75.6,2470.6,266.4,2819.7,665.1,274.4,2459.8,2983.9,93,70
0.125732,272.8,79.4,2450.2,240.2,2888.1,777.5,271.6,2459.3,2993.1,93.4,70
0.127732,272.4,87.2,2428.1,214.7,3006.0,805.4,268.7,2458.3,3003.5,93.7,69.9
0.129732,276.1,93.6,2419.7,194.3,3112.6,778.2,265.6,2456.8,3014.7,94.1,70
0.131732,275.8,91.3,2422.1,191.3,3187.7,777.9,262.5,2454.6,3026.5,94.4,70.1
0.133732,267.6,82.7,2426.6,216.2,3204.7,781.5,259.3,2451.8,3038.7,94.7,70.3
0.135732,254.4,70.9,2425.1,267.0,3142.2,720.7,256.2,2448.4,3051,95.1,70.7
0.137732,242.0,57.7,2418.4,300.0,3090.0,624.9,253.2,2444.4,3063.1,95.3,71
0.139732,235.2,46.0,2420.2,294.5,3090.9,575.4,250.4,2439.9,3074.6,95.6,71.3
0.141732,235.9,42.1,2428.8,273.0,3125.2,576.7,247.8,2435,3085.5,95.9,71.5
0.143732,238.6,44.7,2430.5,264.6,3156.9,611.2,245.5,2429.6,3095.3,96.1,71.6
0.145732,240.1,51.8,2420.3,283.1,3143.1,645.9,243.6,2423.9,3103.8,96.3,71.6
0.147732,240.2,63.8,2401.8,327.0,3069.6,593.4,242,2417.9,3110.8,96.5,71.5
0.149732,242.3,76.9,2380.5,363.8,3009.6,494.7,240.9,2411.8,3116.1,96.7,71.4
0.151732,246.3,81.9,2361.7,376.9,2984.7,432.8,240.2,2405.6,3119.7,96.8,71.3
0.153732,247.6,79.8,2357.3,359.8,2997.4,420.0,240,2399.4,3121.5,97,71.2
0.155732,245.5,78.2,2371.0,317.7,3039.4,422.5,240.2,2393.3,3121.3,97.1,71.1
0.157732,241.3,79.3,2392.2,276.7,3079.8,419.8,240.8,2387.3,3119.3,97.2,71
0.159732,238.5,77.5,2410.6,254.9,3101.5,426.6,241.9,2381.5,3115.6,97.3,70.8
0.161732,240.1,68.6,2426.3,256.6,3112.1,469.1,243.3,2376,3110.3,97.4,70.7
0.163732,243.6,61.0,2436.9,279.2,3116.4,559.1,245,2370.9,3103.5,97.4,70.5
0.165732,247.1,61.1,2438.7,309.7,3113.6,694.9,247,2366,3095.5,97.5,70.4
0.167732,251.2,70.0,2430.5,327.5,3115.7,830.9,249.3,2361.6,3086.6,97.5,70.4
0.169732,257.1,77.6,2418.0,327.5,3152.1,942.5,251.6,2357.6,3077,97.6,70.5
0.171732,261.9,74.3,2400.9,317.4,3214.7,1009.1,254.1,2353.9,3067,97.6,70.7
0.173732,262.6,69.4,2386.2,309.0,3226.1,976.7,256.5,2350.7,3057,97.7,70.9
0.175732,261.1,71.5,2378.7,304.5,3152.1,847.1,258.8,2347.9,3047.3,97.7,71.2
0.177732,259.5,83.6,2371.0,289.6,3077.2,682.5,261,2345.5,3038.1,97.8,71.4
0.179732,259.8,98.8,2354.3,260.5,3044.4,557.4,263,2343.5,3029.8,97.8,71.6
0.181732,261.8,103.5,2327.1,225.9,3023.7,483.5,264.7,2341.9,3022.7,97.9,71.8
0.183732,262.7,98.6,2300.0,197.3,2991.9,464.6,266.1,2340.7,3016.9,97.9,71.9
0.185732,263.1,100.5,2276.7,173.8,2936.7,441.2,267.1,2339.8,3012.6,98,72
0.187732,264.9,118.6,2259.1,152.1,2889.7,381.9,267.8,2339.3,3009.9,98,72.2
0.189732,268.8,143.4,2247.8,134.6,2868.9,327.6,268,2339.1,3009,98,72.2
