time,f1,b1,f2,b2,f3,b3,f1p,f2p,f3p,f0,intensity
0.025476,381.4,95.9,1700.6,425.1,2394.4,512.9,394.7,1557.4,2309.3,108.6,73.1
0.027476,387.0,99.7,1685.1,450.2,2356.6,516.7,395.6,1555.3,2308.2,108.4,73.1
0.029476,389.6,102.9,1658.5,490.3,2312.5,496.5,396.9,1551.9,2306.3,108.2,73.1
0.031476,388.4,111.8,1612.2,504.9,2285.2,476.6,398.8,1547.2,2303.8,108,73
0.033476,387.2,122.6,1576.4,483.8,2275.2,519.3,401.3,1541.2,2300.5,107.7,73
0.035476,391.7,127.0,1562.3,467.7,2259.3,592.2,404.2,1534,2296.6,107.5,73
0.037476,400.7,124.7,1547.4,474.3,2238.0,556.3,407.6,1525.6,2292.1,107.2,72.9
0.039476,409.7,123.0,1510.9,478.7,2236.9,424.1,411.5,1516.2,2287,106.9,72.8
0.041476,417.2,128.0,1452.0,461.6,2256.2,301.3,415.9,1505.9,2281.3,106.7,72.7
0.043476,421.9,131.0,1396.3,420.2,2278.6,231.6,420.7,1494.7,2275.2,106.4,72.6
0.045476,426.8,125.6,1365.1,371.6,2292.6,194.8,425.9,1482.7,2268.6,106.1,72.5
0.047476,432.6,122.6,1358.2,343.2,2293.7,181.5,431.4,1470.1,2261.7,105.8,72.4
0.049476,437.6,131.8,1357.8,337.1,2285.7,187.3,437.3,1457,2254.5,105.6,72.3
0.051476,443.0,153.1,1354.5,339.8,2274.8,215.9,443.5,1443.5,2247,105.3,72.2
0.053476,450.9,160.3,1354.4,321.2,2270.1,256.7,450,1429.7,2239.3,105,72.1
0.055476,461.4,143.5,1360.2,271.8,2268.4,289.6,456.7,1415.8,2231.5,104.7,71.9
0.057476,472.6,123.8,1368.2,219.5,2262.0,308.5,463.6,1401.8,2223.6,104.5,71.8
0.059476,483.8,115.5,1372.0,183.2,2245.6,336.7,470.6,1387.9,2215.8,104.2,71.6
0.061476,495.3,115.2,1368.1,161.3,2212.6,393.0,477.7,1374.2,2208,103.9,71.5
0.063476,503.9,111.2,1361.9,147.5,2174.8,435.1,484.9,1360.9,2200.3,103.7,71.4
0.065476,510.3,100.6,1357.6,134.4,2148.1,421.3,492.1,1347.9,2192.9,103.4,71.3
0.067476,514.7,92.5,1353.7,127.9,2134.1,380.5,499.3,1335.4,2185.6,103.2,71.2
0.069476,516.5,95.4,1343.4,138.8,2124.0,369.9,506.3,1323.5,2178.7,103,71.1
0.071476,516.3,111.2,1319.0,174.5,2114.3,420.6,513.3,1312.2,2172,102.7,70.9
0.073476,517.7,122.8,1295.4,206.7,2109.3,497.8,520.1,1301.7,2165.8,102.5,70.8
0.075476,522.9,119.0,1288.6,211.8,2110.6,511.4,526.7,1291.9,2159.9,102.3,70.7
0.077476,532.1,109.9,1294.2,199.3,2123.5,427.4,533,1282.8,2154.5,102.1,70.5
0.079476,546.2,106.8,1300.1,183.3,2143.1,334.0,539.1,1274.6,2149.5,101.8,70.3
0.081476,562.9,108.4,1298.8,165.7,2161.9,276.9,544.8,1267.2,2145,101.6,70.2
0.083476,572.1,107.9,1295.0,150.9,2173.7,255.8,550.1,1260.7,2141,101.4,70.1
0.085476,574.8,106.2,1292.8,141.9,2176.3,245.1,555.1,1254.9,2137.4,101.3,70.1
0.087476,573.9,110.6,1290.0,146.0,2168.8,246.3,559.6,1250,2134.3,101.1,70.2
0.089476,570.9,129.8,1280.8,173.9,2154.1,282.9,563.7,1245.8,2131.7,100.9,70.3
0.091476,568.1,165.7,1263.5,227.6,2136.2,389.5,567.3,1242.3,2129.5,100.7,70.5
0.093476,566.7,187.7,1255.0,256.3,2126.5,526.0,570.5,1239.6,2127.8,100.6,70.7
0.095476,562.2,185.8,1256.2,241.3,2128.1,599.6,573.1,1237.4,2126.5,100.4,70.8
0.097476,554.4,179.0,1256.5,213.2,2135.0,573.6,575.3,1235.9,2125.5,100.3,70.9
0.099476,548.8,180.4,1249.3,193.3,2139.6,512.5,576.9,1234.8,2124.9,100.2,70.9
0.101476,551.1,183.5,1234.5,180.8,2138.1,476.4,578,1234.2,2124.7,100.1,70.9
0.103476,556.8,177.8,1224.0,171.0,2131.1,482.9,578.6,1233.9,2124.6,100,70.9
0.105476,558.6,169.3,1220.0,162.1,2121.6,502.7,578.7,1233.9,2124.9,99.9,70.8
0.107476,555.3,164.5,1218.7,153.3,2117.9,489.6,578.4,1234.2,2125.3,99.9,70.7
0.109476,552.1,164.7,1217.1,141.0,2120.9,424.3,577.6,1234.6,2125.8,99.8,70.6
0.111476,556.9,167.6,1217.5,123.6,2119.9,355.3,576.4,1235.1,2126.4,99.8,70.5
0.113476,566.0,167.8,1221.8,109.4,2115.5,325.2,574.8,1235.6,2127.1,99.8,70.4
0.115476,569.2,168.4,1227.8,99.6,2114.3,311.4,572.9,1236.1,2127.7,99.8,70.3
0.117476,565.0,175.7,1233.7,94.3,2117.3,300.0,570.6,1236.5,2128.4,99.8,70.2
0.119476,560.4,192.3,1238.1,94.6,2122.7,287.0,568,1236.8,2128.9,99.8,70.1
0.121476,566.2,216.5,1240.5,100.9,2136.0,268.6,565.2,1236.9,2129.3,99.9,70
0.123476,578.6,232.6,1242.6,105.9,2156.4,245.6,562.2,1236.8,2129.6,99.9,69.8
0.125476,581.3,231.1,1244.1,101.4,2168.7,220.7,559.1,1236.4,2129.7,100,69.7
0.127476,571.2,219.2,1244.2,91.4,2170.0,203.3,555.9,1235.8,2129.5,100.1,69.6
0.129476,557.5,209.3,1242.6,85.8,2166.3,202.2,552.6,1235,2129.1,100.1,69.4
0.131476,550.2,206.8,1236.0,90.8,2157.1,235.5,549.4,1233.9,2128.4,100.2,69.3
0.133476,549.9,213.8,1226.9,100.4,2149.3,289.6,546.2,1232.5,2127.5,100.3,69.3
0.135476,543.6,225.1,1220.9,103.0,2155.5,316.2,543.1,1230.9,2126.3,100.4,69.4
0.137476,529.3,239.2,1217.4,102.1,2167.7,315.2,540.1,1229.1,2124.8,100.6,69.5
0.139476,520.1,256.5,1214.0,108.8,2169.9,329.0,537.4,1227,2123,100.7,69.6
0.141476,531.1,269.1,1211.0,128.3,2148.6,384.7,534.8,1224.9,2120.9,100.8,69.7
0.143476,549.6,262.5,1211.7,140.8,2115.3,439.8,532.5,1222.5,2118.6,100.9,69.8
0.145476,554.4,247.7,1213.8,134.9,2096.4,457.1,530.5,1220.2,2116,101,69.8
0.147476,543.0,241.4,1213.8,124.5,2090.5,463.9,528.8,1217.7,2113.2,101.1,69.7
0.149476,529.2,243.9,1210.0,124.2,2072.6,495.9,527.5,1215.3,2110.2,101.2,69.6
0.151476,530.4,249.4,1202.1,138.9,2018.1,551.6,526.5,1212.9,2107.1,101.2,69.5
0.153476,541.1,248.2,1197.4,148.6,1971.1,561.7,525.8,1210.6,2103.8,101.3,69.5
0.155476,544.4,249.6,1199.6,144.2,1976.6,547.3,525.5,1208.5,2100.5,101.4,69.4
0.157476,537.2,265.9,1202.2,139.9,2005.9,541.3,525.6,1206.5,2097.1,101.5,69.3
0.159476,531.9,290.8,1198.1,145.5,2028.4,542.1,526,1204.8,2093.8,101.5,69.3
0.161476,539.9,305.5,1188.5,154.2,2048.9,525.3,526.7,1203.3,2090.5,101.6,69.2
0.163476,549.2,297.8,1185.0,148.6,2073.7,481.9,527.8,1202.2,2087.3,101.6,69.2
0.165476,548.0,282.0,1187.8,133.1,2096.0,435.3,529.1,1201.3,2084.3,101.6,69.1
0.167476,539.4,266.3,1194.2,119.9,2110.5,405.6,530.6,1200.8,2081.6,101.6,69
0.169476,538.2,248.8,1204.7,117.0,2116.4,394.7,532.3,1200.6,2079.1,101.7,68.9
0.171476,550.6,224.4,1218.3,118.4,2114.2,386.3,534.2,1200.8,2076.9,101.7,68.8
0.173476,559.3,205.5,1226.8,111.5,2113.3,365.3,536.2,1201.3,2075.1,101.7,68.7
0.175476,556.5,196.0,1229.7,99.3,2116.1,339.9,538.3,1202.3,2073.8,101.7,68.6
0.177476,544.2,195.4,1228.5,90.6,2120.3,326.0,540.3,1203.5,2072.9,101.7,68.4
0.179476,530.4,200.5,1222.5,92.2,2121.5,341.9,542.2,1205.1,2072.5,101.8,68.2
0.181476,522.2,208.4,1209.8,108.0,2111.9,408.9,544.1,1207,2072.7,101.8,68.1
0.183476,518.0,216.7,1200.8,123.2,2096.3,495.5,545.7,1209.2,2073.6,101.8,68
0.185476,510.8,222.6,1203.9,124.9,2092.8,538.6,547.1,1211.6,2075,101.8,67.9
0.187476,504.5,228.0,1215.1,121.8,2098.1,516.8,548.2,1214.2,2077.1,101.9,67.9
0.189476,511.2,232.9,1227.5,126.0,2087.5,485.1,548.9,1216.9,2079.9,102,67.8
0.191476,528.4,229.3,1236.0,129.5,2062.8,467.1,549.2,1219.8,2083.4,102.1,67.7
0.193476,535.1,223.5,1239.2,121.9,2050.8,450.9,549,1222.7,2087.6,102.2,67.5
0.195476,527.7,224.0,1241.0,108.8,2065.1,427.6,548.3,1225.6,2092.4,102.3,67.2
0.197476,512.3,229.8,1243.2,98.7,2108.6,393.2,547,1228.4,2098.1,102.4,67
0.199476,502.2,231.4,1245.8,98.8,2165.8,355.0,545.2,1231.2,2104.4,102.6,66.7
0.201476,508.2,222.3,1248.6,112.4,2213.8,336.3,542.7,1233.8,2111.4,102.8,66.4
0.203476,517.1,216.0,1252.3,125.1,2237.7,354.0,539.6,1236.3,2119,103.1,66.1
0.205476,517.6,222.5,1256.5,131.0,2245.2,404.8,535.8,1238.4,2127.3,103.4,65.8
0.207476,516.0,243.0,1259.9,142.2,2235.9,496.8,531.3,1240.3,2136.2,103.7,65.5
0.209476,525.2,271.7,1260.2,172.2,2194.7,640.1,526.1,1241.9,2145.7,104,65.2
0.211476,543.1,289.5,1253.7,214.3,2101.2,748.0,520.3,1243.2,2155.7,104.4,65
0.213476,547.1,281.9,1241.3,221.5,2048.8,678.0,513.9,1244.1,2166.2,104.8,64.8
0.215476,535.7,269.6,1231.9,197.0,2066.4,544.3,506.8,1244.6,2177.1,105.3,64.6
0.217476,519.2,266.6,1224.3,176.1,2102.4,411.8,499.2,1244.7,2188.3,105.8,64.5
0.219476,514.7,268.9,1211.0,177.1,2125.2,311.4,491,1244.4,2199.9,106.3,64.5
0.221476,524.0,265.5,1194.7,189.9,2137.4,249.5,482.3,1243.6,2211.7,106.9,64.4
0.223476,529.6,260.4,1189.4,195.0,2149.1,221.8,473.2,1242.6,2223.7,107.5,64.3
0.225476,523.8,264.9,1194.0,194.4,2165.2,213.4,463.7,1241.1,2235.8,108.1,64
0.227476,504.4,285.3,1202.5,193.7,2185.2,222.0,453.9,1239.3,2247.9,108.8,63.6
0.229476,472.2,319.6,1209.8,195.3,2209.0,251.3,444,1237.1,2260,0,63.3
0.231476,436.1,347.0,1212.7,195.5,2237.7,308.1,433.8,1234.7,2271.9,0,62.9
0.233476,418.8,341.9,1213.2,192.3,2257.9,362.1,423.6,1232,2283.7,0,62.6
0.235476,411.5,330.9,1218.9,193.3,2266.9,397.5,413.5,1229.1,2295.2,0,62.5
0.237476,406.6,331.7,1229.4,200.1,2275.0,447.6,403.5,1226.1,2306.3,0,62.4
0.239476,404.9,345.8,1237.6,204.7,2293.1,556.5,393.7,1223,2317,0,62.2
0.241476,403.9,376.4,1241.1,198.7,2341.6,769.7,384.1,1219.8,2327.3,0,62
0.243476,397.4,416.0,1240.5,185.1,2423.5,1009.5,375,1216.6,2337,114.5,61.6
0.245476,377.9,469.5,1235.2,178.2,2485.5,1140.0,366.3,1213.5,2346,115.2,61.4
0.247476,342.4,549.1,1223.8,193.0,2472.8,1153.1,358.2,1210.5,2354.5,115.8,61.1
0.249476,300.0,637.5,1208.0,228.3,2442.0,1179.3,350.7,1207.6,2362.1,116.5,61
0.251476,278.0,672.4,1198.4,262.6,2443.4,1235.0,343.9,1205,2369,117.1,60.5
0.253476,300.0,585.9,1206.3,255.9,2462.2,1151.6,337.9,1202.6,2375.1,117.7,60.3
0.255476,322.1,468.3,1219.2,222.5,2448.5,895.4,332.7,1200.5,2380.3,118.2,59.9
0.257476,327.0,417.8,1222.6,203.8,2402.0,648.6,328.4,1198.7,2384.6,118.8,59.5
0.259476,321.6,426.1,1216.5,202.9,2354.3,482.3,325,1197.3,2388,119.3,59.1
0.261476,312.8,474.2,1207.3,213.9,2321.3,368.9,322.5,1196.3,2390.5,119.7,58.7
0.263476,309.9,555.4,1197.5,243.7,2304.2,312.0,321,1195.6,2391.9,120.1,58.3
0.265476,330.1,631.8,1187.2,292.1,2292.7,283.6,320.6,1195.4,2392.4,120.5,57.8
