time,f1,b1,f2,b2,f3,b3,f1p,f2p,f3p,f0,intensity
0.025317,371.1,173.7,2398.5,521.9,2773.1,1711.8,428,2313.4,2811.5,148.7,66.9
0.027317,404.6,165.5,2364.8,512.3,2732.2,1221.0,429.9,2313.4,2809.9,148.7,67.2
0.029317,430.2,141.4,2303.1,451.3,2771.6,844.7,433,2313.4,2807.4,148.7,67.5
0.031317,449.7,119.3,2252.8,320.6,2808.0,523.7,437.2,2313.6,2804.1,148.7,67.8
0.033317,461.6,103.9,2243.1,205.1,2818.0,314.8,442.2,2314,2800.3,148.7,68
0.035317,464.7,98.9,2263.1,140.1,2823.5,197.2,447.9,2314.8,2796.4,148.6,68.1
0.037317,464.0,101.5,2289.7,112.4,2824.7,137.4,454,2316.1,2792.5,148.6,68.2
0.039317,467.8,104.8,2310.9,102.4,2820.7,111.8,460.3,2318,2789.2,148.5,68.3
0.041317,476.5,107.4,2327.1,98.1,2814.5,105.1,466.4,2320.7,2786.5,148.4,68.3
0.043317,485.7,107.6,2342.3,86.6,2807.3,108.0,472.2,2324.3,2784.9,148.4,68.3
0.045317,490.6,105.4,2354.1,72.3,2802.0,118.8,477.3,2328.9,2784.6,148.3,68.3
0.047317,491.2,103.4,2361.8,63.4,2801.8,139.6,481.6,2334.4,2785.7,148.1,68.3
0.049317,490.1,102.4,2366.8,61.2,2810.9,155.7,484.9,2340.9,2788.4,148,68.3
0.051317,490.4,100.5,2370.1,66.7,2822.8,140.5,487,2348.4,2792.6,147.9,68.2
0.053317,491.5,97.5,2373.1,85.2,2824.1,108.6,487.9,2356.7,2798.2,147.7,68.2
0.055317,491.1,94.4,2374.9,115.1,2817.0,92.4,487.5,2365.6,2805.1,147.5,68.1
0.057317,488.9,91.0,2374.7,147.7,2806.7,94.2,485.8,2375.1,2813,147.4,68
0.059317,482.7,90.2,2379.3,171.4,2795.9,111.9,482.8,2384.9,2821.7,147.2,67.9
0.061317,471.8,93.0,2388.4,186.3,2786.3,142.3,478.7,2394.8,2830.8,147,67.8
0.063317,459.1,95.1,2394.4,197.9,2782.7,171.9,473.5,2404.5,2840,146.8,67.8
0.065317,450.1,93.9,2396.5,208.7,2795.8,184.7,467.5,2413.8,2848.8,146.5,67.7
0.067317,443.5,91.0,2398.9,224.9,2823.9,183.1,460.9,2422.5,2857,146.3,67.6
0.069317,437.7,88.6,2406.3,243.0,2851.7,171.8,453.7,2430.3,2864.1,146.1,67.5
0.071317,433.0,86.4,2422.5,246.8,2869.7,160.6,446.2,2437.2,2870,145.9,67.5
0.073317,428.8,83.4,2444.8,235.5,2879.6,155.3,438.7,2442.9,2874.5,145.6,67.4
0.075317,424.6,80.0,2461.5,219.3,2884.3,156.3,431.2,2447.5,2877.4,145.4,67.3
0.077317,422.4,77.4,2466.4,191.2,2888.9,155.6,424,2450.8,2878.8,145.1,67.2
0.079317,422.5,76.0,2461.3,146.5,2895.3,147.2,417.1,2453,2878.6,144.9,67.1
0.081317,422.2,76.0,2453.3,100.1,2899.0,139.2,410.7,2454.2,2877.2,144.6,67
0.083317,419.5,76.9,2448.6,71.8,2895.0,142.4,404.9,2454.3,2874.7,144.4,67
0.085317,415.0,77.2,2445.6,58.1,2883.6,154.5,399.5,2453.8,2871.4,144.2,67
0.087317,408.3,76.0,2442.3,52.2,2873.7,165.2,394.8,2452.6,2867.6,143.9,67
0.089317,400.1,73.8,2440.1,47.2,2877.7,162.4,390.6,2451.2,2863.9,143.7,67.1
0.091317,394.5,72.3,2442.5,41.2,2890.6,148.6,386.9,2449.6,2860.5,143.5,67.1
0.093317,393.6,72.3,2450.8,38.5,2895.1,143.7,383.6,2448.2,2857.9,143.2,67.2
0.095317,391.8,73.4,2462.0,41.9,2887.4,156.8,380.6,2447.1,2856.3,143,67.3
0.097317,384.7,76.4,2472.0,54.7,2870.5,188.6,377.9,2446.5,2856,142.8,67.3
0.099317,375.3,78.3,2478.0,79.2,2847.0,226.9,375.4,2446.5,2857.2,142.6,67.4
0.101317,366.9,77.6,2476.8,111.8,2824.0,242.5,372.9,2447.2,2860.1,142.4,67.5
0.103317,360.9,76.4,2464.5,132.2,2815.5,225.2,370.4,2448.7,2864.6,142.2,67.6
0.105317,358.4,77.5,2446.7,128.9,2818.9,205.5,368,2450.8,2870.6,142.1,67.7
0.107317,358.4,79.9,2440.9,111.9,2829.7,209.6,365.4,2453.6,2877.9,141.9,67.8
0.109317,355.7,79.4,2453.2,94.9,2857.0,233.4,362.7,2456.9,2886.3,141.7,67.9
0.111317,349.6,74.6,2467.3,80.0,2901.7,232.0,360,2460.5,2895.3,141.6,67.9
0.113317,344.2,68.7,2469.9,69.2,2936.2,194.9,357.2,2464.3,2904.6,141.4,68
0.115317,341.5,64.6,2459.5,63.8,2948.6,156.8,354.4,2467.9,2913.6,141.3,68
0.117317,341.2,63.1,2442.7,61.4,2948.4,132.2,351.6,2471.2,2922,141.1,68
0.119317,342.7,64.4,2428.0,60.9,2941.7,118.1,348.9,2474,2929.3,141,68
0.121317,344.6,66.4,2423.3,64.9,2931.5,112.0,346.4,2475.9,2935,140.9,68.1
0.123317,345.0,67.1,2429.5,74.8,2920.7,111.4,344,2477,2938.9,140.7,68.1
0.125317,344.6,67.1,2445.2,86.2,2914.1,115.5,342,2476.9,2940.7,140.6,68.2
0.127317,345.7,69.0,2465.0,94.0,2915.1,126.0,340.3,2475.7,2940.1,140.5,68.2
0.129317,348.2,72.5,2485.1,102.3,2924.1,149.5,338.9,2473.3,2937.2,140.3,68.3
0.131317,349.4,74.4,2503.2,117.0,2939.1,190.9,337.8,2469.7,2932.1,140.2,68.3
0.133317,349.0,74.8,2519.1,139.2,2955.7,250.5,337.2,2465.1,2924.8,140,68.4
0.135317,348.8,74.4,2526.1,166.0,2965.8,318.4,336.9,2459.7,2915.8,139.9,68.4
0.137317,348.7,72.8,2517.2,197.2,2958.3,407.5,336.9,2453.5,2905.4,139.7,68.4
0.139317,349.0,70.4,2490.9,225.3,2894.5,480.4,337.2,2446.9,2894,139.5,68.4
0.141317,350.0,69.6,2463.6,227.2,2863.8,432.6,337.7,2440.1,2882.1,139.3,68.4
0.143317,350.1,69.6,2444.9,211.8,2874.8,357.6,338.3,2433.5,2870.4,139.2,68.4
0.145317,347.4,68.2,2427.1,192.2,2873.1,248.3,338.9,2427.3,2859.4,139,68.3
0.147317,342.5,65.8,2403.6,170.5,2854.1,157.2,339.6,2421.7,2849.6,138.8,68.3
0.149317,337.3,65.0,2386.5,154.4,2839.2,114.9,340.2,2417.2,2841.4,138.6,68.1
0.151317,330.1,65.1,2380.3,150.2,2825.4,105.7,340.7,2413.7,2835.2,138.4,67.9
0.153317,319.9,63.6,2379.0,154.1,2808.6,112.9,341,2411.6,2831.4,138.2,67.6
0.155317,308.2,60.0,2377.1,160.1,2790.7,125.9,341.1,2410.9,2830.1,138,67.2
