time,f1,b1,f2,b2,f3,b3,f1p,f2p,f3p,f0,intensity
0.025463,395.7,177.0,2087.3,192.9,3155.2,508.7,478.3,2143.8,3145.8,150.3,71.4
0.027463,430.0,227.5,2107.0,169.8,3149.6,467.7,479.4,2149.9,3140.8,150.1,71.3
0.029463,457.0,266.1,2128.4,150.0,3144.7,419.6,481.2,2159.9,3132.6,149.9,71.2
0.031463,478.6,295.6,2145.2,136.6,3123.6,359.2,483.6,2173.7,3121.7,149.7,71.2
0.033463,497.5,317.3,2160.6,132.8,3091.8,290.1,486.5,2190.8,3108.4,149.5,71.2
0.035463,512.9,329.4,2183.0,141.8,3063.3,227.8,489.7,2210.9,3093.4,149.2,71.3
0.037463,524.8,333.2,2221.3,166.4,3042.8,183.5,493.2,2233.5,3077.2,149,71.3
0.039463,534.8,333.4,2280.1,204.3,3026.9,152.8,496.6,2258.2,3060.5,148.8,71.3
0.041463,539.9,333.6,2351.7,245.2,3014.3,129.3,499.9,2284.5,3044.2,148.5,71.3
0.043463,537.1,334.2,2415.5,277.8,3006.3,112.1,502.9,2311.7,3028.8,148.3,71.1
0.045463,530.1,333.6,2454.3,302.5,3003.8,103.0,505.3,2339.6,3015,148.1,71
0.047463,525.1,331.7,2463.9,317.4,3007.1,102.8,507.1,2367.5,3003.6,147.8,70.8
0.049463,521.8,328.0,2449.0,302.5,3017.3,111.6,508.1,2395,2994.9,147.6,70.5
0.051463,518.9,321.2,2426.3,253.6,3035.4,132.8,508.1,2421.9,2989.6,147.4,70.3
0.053463,513.9,312.5,2416.1,206.0,3057.5,172.6,507,2447.7,2988,147.2,70
0.055463,502.5,301.5,2424.2,185.1,3068.1,222.9,504.9,2472.3,2990.2,147,69.8
0.057463,489.2,284.9,2444.3,189.5,3051.9,246.0,501.6,2495.6,2996.4,146.8,69.7
0.059463,482.0,267.1,2466.5,210.5,3026.0,233.5,497.1,2517.4,3006.4,146.6,69.5
0.061463,476.3,249.3,2490.8,252.0,3014.2,231.6,491.5,2537.8,3020.1,146.4,69.4
0.063463,468.5,229.3,2523.3,313.6,3016.5,261.7,484.9,2557,3037.2,146.2,69.3
0.065463,462.3,207.1,2561.5,359.0,3031.3,318.0,477.4,2574.9,3057.3,146.1,69.3
0.067463,457.6,184.1,2586.0,339.0,3067.2,383.3,469,2591.9,3079.8,145.9,69.2
0.069463,448.5,159.9,2595.3,279.6,3114.3,432.8,459.9,2608.1,3104.2,145.8,69.1
0.071463,435.5,132.9,2613.0,240.6,3136.1,466.6,450.3,2623.8,3129.7,145.7,69
0.073463,426.3,109.4,2642.7,220.0,3134.3,498.7,440.3,2639.3,3155.8,145.6,69
0.075463,420.9,95.2,2675.8,185.4,3149.8,528.5,430.1,2654.8,3181.7,145.5,68.9
0.077463,414.8,88.2,2698.2,138.1,3192.8,518.8,420,2670.5,3206.9,145.4,68.9
0.079463,406.7,85.0,2706.5,103.0,3225.3,470.6,409.9,2686.5,3230.7,145.3,68.8
0.081463,399.1,82.3,2707.1,86.8,3239.8,441.4,400.2,2703.1,3252.5,145.3,68.7
0.083463,393.4,76.6,2706.9,87.1,3257.3,458.5,391,2720.1,3272,145.3,68.6
0.085463,388.1,67.2,2711.4,106.1,3279.0,517.6,382.3,2737.6,3288.9,145.2,68.5
0.087463,382.5,57.8,2728.3,147.9,3276.1,612.9,374.3,2755.5,3302.8,145.2,68.4
0.089463,377.4,51.6,2766.4,196.1,3237.9,751.2,367,2773.7,3313.6,145.2,68.4
0.091463,372.2,48.1,2816.5,207.9,3199.7,918.3,360.5,2791.8,3321.4,145.2,68.3
0.093463,366.2,45.6,2852.1,186.0,3226.8,1072.7,354.8,2809.6,3326.2,145.2,68.3
0.095463,360.1,43.8,2869.8,167.4,3341.8,1119.4,349.8,2826.7,3328.3,145.2,68.3
0.097463,355.2,43.4,2875.7,161.1,3431.4,960.9,345.6,2842.7,3328,145.2,68.3
0.099463,351.6,43.0,2871.5,160.3,3447.8,787.8,342.1,2857.3,3325.5,145.2,68.2
0.101463,347.9,42.1,2862.4,155.8,3444.6,678.1,339.1,2870,3321.4,145.2,68.1
0.103463,343.6,41.9,2856.0,145.0,3426.1,640.2,336.7,2880.4,3315.9,145.2,68
0.105463,338.8,42.8,2853.9,133.1,3372.1,651.0,334.7,2888.2,3309.6,145.2,67.8
0.107463,334.0,43.7,2853.9,127.7,3287.3,653.3,333,2893,3302.9,145.2,67.7
0.109463,329.8,43.7,2858.1,130.4,3215.1,644.1,331.5,2894.5,3296.2,145.2,67.5
0.111463,326.0,43.0,2869.6,139.1,3170.3,676.1,330,2892.7,3289.7,145.2,67.3
0.113463,322.8,42.2,2884.0,146.6,3157.2,758.2,328.7,2887.3,3283.8,145.2,67.1
0.115463,320.4,41.4,2887.5,152.6,3195.0,829.1,327.2,2878.5,3278.6,145.2,67
0.117463,318.0,40.0,2875.0,163.9,3280.5,816.9,325.6,2866.2,3274.2,145.1,66.8
0.119463,315.4,38.2,2853.6,183.2,3368.7,733.6,323.9,2850.8,3270.5,145.1,66.6
0.121463,313.1,37.1,2839.3,208.4,3424.0,677.4,321.9,2832.4,3267.5,145,66.4
0.123463,310.9,37.5,2844.2,228.2,3454.1,698.0,319.7,2811.6,3264.9,145,66.3
0.125463,308.4,38.6,2855.9,234.6,3466.9,723.1,317.4,2788.6,3262.5,144.9,66.1
0.127463,306.1,38.4,2856.4,237.9,3455.3,664.6,314.8,2764.1,3259.9,144.8,65.9
0.129463,304.5,35.8,2845.7,243.1,3440.2,562.5,312.1,2738.6,3256.7,144.7,65.8
0.131463,303.4,31.6,2836.6,252.4,3445.7,515.3,309.4,2712.7,3252.5,144.6,65.6
0.133463,303.4,27.9,2765.9,6885.8,2841.1,269.3,306.6,2687,3246.9,144.5,65.3
0.135463,304.1,26.8,2537.6,3965.5,2855.4,285.4,303.9,2662.1,3239.5,144.4,65.1
0.137463,304.4,28.8,2457.9,3375.4,2866.0,307.5,301.3,2638.4,3229.9,144.3,64.8
0.139463,304.2,32.1,2401.0,3019.9,2870.1,339.3,298.9,2616.6,3217.8,144.1,64.6
0.141463,304.3,34.5,2324.5,2771.7,2850.7,360.3,296.7,2597,3203,144,64.3
0.143463,304.3,34.9,2337.9,2974.2,2794.3,355.7,294.9,2580,3185.3,143.8,64.1
0.145463,303.0,32.8,2591.6,3694.2,2730.8,324.5,293.4,2565.8,3164.7,143.7,63.9
0.147463,301.2,29.0,2685.6,290.5,3692.9,5014.9,292.3,2554.6,3141.3,143.5,63.8
0.149463,299.3,26.2,2658.8,260.5,3553.4,791.2,291.6,2546.4,3115.4,143.4,63.7
0.151463,297.4,25.4,2646.7,234.7,3426.3,653.3,291.3,2541.1,3087.2,143.2,63.7
0.153463,296.5,26.2,2639.8,213.4,3358.4,566.2,291.4,2538.6,3057.1,143,63.6
0.155463,297.3,27.9,2634.4,198.0,3333.1,548.2,291.8,2538.6,3025.7,142.9,63.6
0.157463,297.2,28.9,2634.7,195.6,3365.2,616.0,292.5,2540.8,2993.7,142.7,63.6
0.159463,294.6,28.3,2642.3,208.1,3506.3,707.9,293.4,2544.8,2961.7,142.6,63.5
0.161463,291.8,27.3,2649.2,230.9,2831.4,2475.8,294.5,2550.1,2930.4,142.4,63.4
0.163463,291.4,26.8,2648.6,259.5,2713.4,1970.6,295.8,2556.3,2900.6,142.3,63.2
0.165463,292.5,26.8,2643.8,293.3,2667.6,1658.5,297,2562.9,2872.9,142.1,63
0.167463,293.8,27.4,2603.9,1413.9,2642.8,342.1,298.2,2569.4,2848.2,142,62.6
0.169463,295.0,28.6,2524.9,1228.5,2657.4,405.3,299.3,2575.4,2827,141.9,62.2
0.171463,296.2,30.9,2453.6,1162.8,2697.1,433.2,300.3,2580.5,2809.8,141.8,61.8
0.173463,297.3,34.7,2424.9,1298.6,2729.8,372.0,301,2584.4,2797.3,141.7,61.4
0.175463,298.6,40.0,2465.6,1621.2,2729.8,279.2,301.4,2586.8,2789.6,141.6,61
0.177463,299.8,44.7,2563.0,2010.7,2717.4,211.7,301.5,2587.6,2787,141.5,60.5
