time,f1,b1,f2,b2,f3,b3,f1p,f2p,f3p,f0,intensity
0.025277,424.1,111.5,2533.3,207.7,2866.2,212.3,461.6,2565.7,2970.4,0,66.7
0.027277,435.7,95.9,2532.0,169.7,2878.9,192.4,461.7,2565.1,2968.1,0,68.1
0.029277,446.7,77.5,2541.3,156.5,2891.5,196.4,461.7,2563.9,2964.3,0,69.1
0.031277,457.4,60.8,2557.6,155.2,2910.5,215.4,461.7,2562.5,2959.2,0,69.8
0.033277,467.8,48.1,2579.5,161.6,2936.5,241.8,461.8,2560.7,2952.9,0,70.3
0.035277,476.5,41.5,2597.4,173.0,2957.5,254.8,461.8,2558.7,2945.8,0,70.5
0.037277,483.4,39.7,2594.3,182.0,2960.4,235.7,461.9,2556.5,2938,0,70.5
0.039277,488.0,41.6,2574.3,175.1,2952.7,203.2,461.9,2554.3,2929.8,0,70.3
0.041277,489.3,46.0,2558.7,163.7,2945.2,188.5,461.9,2552.2,2921.6,0,70
0.043277,485.7,49.2,2550.9,162.2,2940.2,201.8,461.9,2550.2,2913.7,136.1,69.7
0.045277,478.1,49.5,2544.6,168.3,2933.6,240.4,461.8,2548.6,2906.3,135.4,69.3
0.047277,468.4,48.2,2536.7,173.7,2919.0,303.2,461.7,2547.3,2899.9,134.6,68.9
0.049277,460.3,47.1,2531.2,170.4,2899.8,362.8,461.6,2546.5,2894.6,133.7,68.6
0.051277,455.1,47.4,2530.3,159.7,2894.9,387.2,461.4,2546.2,2890.8,132.7,68.3
0.053277,451.9,50.4,2533.5,150.1,2906.9,378.3,461.1,2546.6,2888.7,131.6,68.1
0.055277,449.1,56.1,2540.5,141.8,2922.8,359.9,460.7,2547.7,2888.4,130.4,67.9
0.057277,447.0,61.8,2549.9,130.9,2940.7,350.9,460.2,2549.4,2890.2,129.1,67.7
0.059277,445.0,66.5,2561.0,120.9,2966.8,357.0,459.7,2551.9,2894.1,127.6,67.5
0.061277,443.8,70.0,2571.5,116.5,2996.2,372.1,458.9,2555.1,2900.1,126.1,67.4
0.063277,445.5,70.9,2578.9,114.9,3019.6,382.4,458.1,2558.9,2908.2,124.5,67.3
0.065277,450.0,68.6,2580.1,112.3,3029.3,377.7,457.1,2563.4,2918.4,122.7,67.2
0.067277,454.3,65.7,2576.7,109.5,3025.6,365.5,455.9,2568.4,2930.5,120.8,67.2
0.069277,455.9,63.3,2573.6,107.4,3014.1,361.4,454.5,2573.9,2944.4,118.9,67.1
0.071277,456.5,58.8,2574.3,104.8,2998.2,369.0,453,2579.7,2959.8,116.8,67
0.073277,457.9,52.8,2579.2,105.4,2977.0,377.6,451.3,2585.8,2976.6,114.7,67
0.075277,459.3,48.5,2587.7,115.1,2952.0,375.2,449.3,2591.9,2994.5,112.6,67
0.077277,458.1,47.6,2597.6,127.5,2935.6,366.8,447.2,2598.1,3013.1,110.3,67
0.079277,453.1,47.0,2607.6,129.9,2934.5,371.0,444.8,2604.1,3032.3,0,67
0.081277,445.1,44.7,2616.1,119.1,2948.5,399.8,442.1,2609.9,3051.8,0,67
0.083277,435.5,42.1,2621.8,104.0,2974.0,453.6,439.2,2615.2,3071.2,0,66.9
0.085277,426.5,39.8,2624.6,91.3,3006.3,520.1,436.1,2620.1,3090.3,0,66.8
0.087277,423.8,36.6,2625.0,85.2,3033.6,568.1,432.8,2624.3,3108.9,0,66.7
0.089277,427.3,32.7,2623.9,84.2,3057.9,592.4,429.1,2627.9,3126.9,0,66.5
0.091277,430.8,29.7,2621.1,85.6,3083.8,598.6,425.3,2630.8,3144,94.6,66.3
0.093277,430.0,28.3,2618.2,87.2,3111.5,593.4,421.2,2632.9,3160.2,92.6,66
0.095277,424.2,28.5,2618.1,88.5,3131.2,595.6,416.9,2634.2,3175.4,90.6,65.7
0.097277,415.7,29.8,2621.8,94.9,3136.4,634.7,412.3,2634.7,3189.6,88.7,65.5
0.099277,408.3,32.0,2627.5,111.5,3131.2,715.7,407.6,2634.5,3202.8,86.9,65.2
0.101277,403.0,35.9,2627.9,133.4,3141.6,754.5,402.6,2633.6,3215.1,85.3,65
0.103277,398.7,42.2,2616.2,143.9,3176.7,665.5,397.6,2632.1,3226.7,83.7,64.9
0.105277,393.4,50.1,2604.0,140.7,3206.0,561.7,392.3,2630,3237.6,82.3,64.8
0.107277,387.2,55.7,2601.3,132.2,3224.8,505.7,387,2627.5,3248,81,64.7
0.109277,381.1,57.1,2608.4,121.8,3245.6,482.0,381.5,2624.7,3258.2,79.8,64.7
0.111277,376.5,55.3,2621.9,113.2,3280.0,474.0,376.1,2621.7,3268.4,78.8,64.7
0.113277,371.2,53.7,2636.4,110.4,3330.3,466.0,370.6,2618.6,3278.6,77.9,64.7
0.115277,363.6,52.7,2643.9,110.3,3373.7,461.1,365.1,2615.7,3289.3,77,64.9
0.117277,353.4,51.3,2641.9,101.4,3399.3,479.9,359.7,2612.9,3300.4,76.4,65
0.119277,344.2,50.3,2636.1,86.7,3416.0,544.3,354.3,2610.5,3312.2,75.8,65.1
0.121277,338.5,50.4,2632.1,75.4,3468.9,649.1,349.2,2608.4,3324.8,75.3,65.1
0.123277,335.4,51.8,2630.0,68.0,3620.9,672.1,344.2,2607,3338.3,74.9,65.2
0.125277,334.2,54.5,2629.6,68.0,3741.7,521.6,339.4,2606.1,3352.7,74.6,65.2
0.127277,333.6,55.6,2633.6,76.8,3780.6,433.5,335,2605.9,3367.9,74.4,65.1
0.129277,332.2,52.6,2642.4,90.2,3788.6,426.8,330.8,2606.4,3384,74.3,65.1
0.131277,329.9,47.0,2653.5,110.4,3769.2,2595.2,327,2607.6,3400.8,74.3,65
0.133277,327.9,42.0,2665.2,140.6,3541.5,2590.8,323.7,2609.6,3418.1,74.3,64.9
0.135277,326.2,38.7,2680.9,169.4,3157.6,3208.3,320.7,2612.2,3435.6,74.4,64.8
0.137277,323.8,36.9,2501.9,3034.3,2697.1,176.9,318.2,2615.5,3453.2,74.6,64.7
0.139277,320.6,35.6,2371.1,2884.9,2703.6,165.1,316.3,2619.3,3470.5,74.8,64.6
0.141277,318.5,35.1,2593.9,3540.9,2692.9,146.9,314.8,2623.6,3487.2,75.2,64.6
0.143277,318.4,35.6,2670.3,128.3,3645.5,2834.4,313.9,2628.3,3502.8,75.6,64.6
0.145277,319.8,37.4,2646.6,113.8,3773.8,645.3,313.5,2633.2,3517.2,76.1,64.6
0.147277,322.1,39.6,2630.9,108.2,3712.9,590.7,313.8,2638.2,3529.7,76.6,64.6
0.149277,322.9,39.5,2633.8,116.5,3661.0,468.8,314.5,2643.2,3540.2,77.3,64.5
0.151277,321.2,37.3,2652.8,139.4,3638.6,388.5,315.9,2648.1,3548.3,78,64.5
0.153277,318.1,34.7,2680.3,178.2,2772.5,7117.2,317.8,2652.7,3553.7,78.8,64.4
0.155277,315.4,32.9,2669.8,4342.9,2695.0,225.0,320.2,2656.9,3556.1,79.8,64.2
0.157277,314.9,32.7,2673.8,252.6,3598.6,3816.9,323.1,2660.6,3555.3,80.8,64.1
0.159277,317.5,34.6,2639.3,230.2,3680.7,385.6,326.5,2663.6,3551.2,81.9,63.9
0.161277,323.0,38.7,2624.2,187.9,3720.7,407.3,330.4,2666,3543.8,83.2,63.6
0.163277,328.6,43.2,2632.4,157.0,3769.2,374.8,334.6,2667.7,3533,84.6,63.3
0.165277,332.7,47.0,2652.9,137.0,3748.8,2740.3,339.2,2668.6,3518.9,86,63
0.167277,336.6,50.4,2672.6,125.4,3768.5,3417.8,344,2668.7,3501.8,87.6,62.7
0.169277,342.5,53.7,2687.2,122.1,3787.9,408.0,349.1,2668,3481.7,89.3,62.5
0.171277,350.8,57.6,2693.1,126.4,3732.4,500.4,354.3,2666.6,3459.2,91.1,62.3
0.173277,361.4,63.9,2688.1,137.6,3660.9,553.2,359.7,2664.5,3434.4,93,62.3
0.175277,371.4,71.5,2673.8,147.6,3609.4,566.4,365,2661.8,3408,95,62.4
0.177277,378.1,79.2,2661.8,141.1,3560.6,550.0,370.4,2658.5,3380.3,97.1,62.6
0.179277,380.5,85.4,2663.7,128.7,3505.9,531.0,375.6,2654.9,3352,99.2,63
0.181277,382.6,86.3,2674.0,134.7,3439.5,558.5,380.6,2650.9,3323.5,101.4,63.3
0.183277,388.3,78.5,2689.2,168.4,3353.7,620.5,385.4,2646.8,3295.5,0,63.8
0.185277,397.8,66.2,2712.0,237.6,3246.2,685.2,389.8,2642.7,3268.6,0,64.3
0.187277,405.0,60.2,2731.2,320.5,3134.1,682.2,393.9,2638.6,3243.2,0,64.9
0.189277,404.2,65.4,2712.2,346.0,3090.2,564.2,397.6,2634.8,3220,0,65.5
0.191277,397.4,79.0,2669.3,297.9,3092.2,459.4,400.8,2631.4,3199.4,112.5,66
0.193277,392.4,92.9,2630.1,243.0,3086.0,396.5,403.5,2628.4,3182,114.7,66.4
0.195277,393.6,102.4,2593.0,205.8,3065.5,358.2,405.6,2626,3168,116.8,66.5
0.197277,399.1,107.6,2554.8,186.3,3036.8,349.2,407.1,2624.2,3157.7,118.8,66.4
0.199277,408.0,111.6,2520.5,175.7,2997.5,372.7,408.1,2623.1,3151.5,120.7,66.1
0.201277,418.5,115.2,2508.4,176.0,2947.8,422.7,408.4,2622.7,3149.4,122.6,65.8
