time,f1,b1,f2,b2,f3,b3,f1p,f2p,f3p,f0,intensity
0.025834,366.6,324.2,1051.3,305.4,2639.3,948.4,396.7,1075.4,2758.7,218.5,78.3
0.027834,385.5,357.7,1059.9,258.4,2685.7,934.7,402.6,1076.8,2770.6,218.4,77.9
0.029834,408.3,388.7,1073.0,219.8,2740.7,909.5,412,1079.2,2790,218.3,77.6
0.031834,434.6,414.2,1087.6,186.8,2820.6,867.2,424.5,1082.4,2816.5,218.2,77.4
0.033834,461.2,433.7,1100.3,158.2,2912.4,786.3,439.4,1086.5,2849.4,218.1,77.3
0.035834,482.2,444.0,1108.3,135.9,2982.2,688.1,456,1091.3,2887.6,217.9,77.3
0.037834,493.6,444.0,1111.8,121.6,3017.2,620.7,473.2,1096.8,2930.1,217.8,77.4
0.039834,498.8,434.5,1113.3,115.1,3033.0,604.6,490.3,1102.7,2975.5,217.7,77.4
0.041834,503.9,416.4,1114.7,114.6,3051.2,626.6,506.4,1108.9,3022.4,217.6,77.5
0.043834,511.1,393.8,1116.8,118.6,3087.1,667.0,520.7,1115.1,3069.2,217.4,77.5
0.045834,519.3,372.4,1119.6,125.6,3149.2,714.7,532.5,1121.3,3114,217.3,77.5
0.047834,527.3,356.4,1122.8,134.5,3211.1,855.4,541.2,1127,3155.3,217.2,77.5
0.049834,534.4,346.2,1126.3,145.3,3207.5,889.0,546.5,1132.1,3191.1,217,77.4
0.051834,540.6,339.9,1130.5,156.8,3205.1,826.3,548.2,1136.3,3219.9,216.9,77.3
0.053834,545.5,335.8,1135.4,166.4,3185.0,725.6,546.4,1139.4,3240,216.7,77.3
0.055834,547.9,332.4,1140.3,171.2,3158.3,663.6,541.1,1141.1,3250.1,216.5,77.3
0.057834,545.6,329.6,1143.3,170.3,3137.6,635.0,532.8,1141.4,3249.2,216.3,77.2
0.059834,537.0,327.0,1143.1,164.5,3125.0,625.8,521.9,1140.1,3236.4,216.1,77.2
0.061834,521.1,322.3,1139.0,155.3,3129.6,626.7,509.2,1137.2,3211.3,215.9,77.2
0.063834,499.0,310.6,1132.0,145.0,3175.0,647.6,495.1,1132.8,3174.1,215.7,77.2
0.065834,474.8,287.6,1122.9,135.2,3233.5,1044.8,480.4,1127,3125.1,215.4,77.2
0.067834,454.2,255.4,1113.1,126.0,3139.2,1370.1,465.8,1120,3065.4,215.2,77.1
0.069834,439.3,221.1,1103.7,116.6,3023.7,1638.9,451.8,1112.2,2996.2,214.9,77.1
0.071834,429.2,190.4,1096.2,107.4,2923.6,1787.4,439,1103.8,2919.2,214.6,77.1
0.073834,422.1,164.9,1091.1,100.5,2878.4,1795.9,427.7,1095.3,2836.5,214.2,77.1
0.075834,416.6,143.3,1087.8,97.4,2861.7,1800.1,418.3,1087,2750.3,213.9,77.1
0.077834,412.1,124.2,1084.8,98.2,2795.2,1922.0,410.9,1079.4,2663,213.5,77.1
0.079834,408.7,107.5,1081.4,101.1,2602.0,1997.1,405.4,1072.8,2577.1,213.1,77.1
0.081834,406.5,93.4,1077.2,104.9,2418.7,1832.9,401.7,1067.4,2494.9,212.6,77
0.083834,405.5,82.6,1072.9,109.8,2313.5,1691.2,399.8,1063.5,2418.6,212.2,77
0.085834,405.7,75.7,1069.7,117.0,2248.6,1695.4,399.1,1061.2,2350,211.7,77
0.087834,406.3,71.5,1068.0,126.9,2213.1,1863.3,399.4,1060.3,2290.8,211.1,76.9
0.089834,406.5,67.6,1066.4,137.2,2212.0,2122.4,400.4,1060.8,2241.9,210.6,76.8
0.091834,405.8,62.0,1063.0,146.7,2226.2,2282.1,401.6,1062.3,2204.1,210,76.7
0.093834,404.1,55.5,1058.9,156.4,2215.6,2263.7,402.8,1064.3,2177.4,209.4,76.6
0.095834,402.1,49.7,1056.6,168.3,2183.0,2224.9,403.6,1066.3,2161.3,208.7,76.3
0.097834,400.1,45.3,1056.3,185.0,2152.8,2271.5,403.9,1067.7,2155.1,208.1,76.1
0.099834,398.2,42.1,1055.8,207.9,2145.6,2392.8,403.6,1067.8,2157.5,207.4,75.8
0.101834,396.4,40.2,1054.8,237.3,2164.5,2530.6,402.7,1065.8,2166.8,206.7,75.4
0.103834,394.7,39.7,1054.4,267.0,2193.6,2635.7,401.1,1061.2,2181.4,206,75
0.105834,393.1,40.2,1052.9,278.7,2230.4,2703.4,399.1,1053.3,2199.2,205.3,74.5
0.107834,391.2,41.0,1043.7,258.4,2277.3,2706.7,396.7,1041.6,2218.3,204.5,74
0.109834,389.5,41.8,1026.9,219.8,2304.4,2633.8,394.2,1025.9,2236.8,203.8,73.4
0.111834,388.6,43.0,1008.2,187.9,2286.4,2511.1,391.7,1006,2253.3,203,72.7
0.113834,388.8,46.5,990.0,176.5,2238.9,2349.9,389.6,981.9,2266.4,202.3,72
0.115834,390.5,54.1,968.8,187.5,2200.2,2207.9,387.9,954.1,2275,201.5,71.3
0.117834,393.8,66.8,938.8,215.9,2197.6,2122.1,386.8,922.9,2278.7,200.8,70.5
0.119834,397.3,83.3,896.7,250.5,2235.9,2009.6,386.3,889,2277.4,200,69.7
0.121834,399.4,102.0,848.3,281.3,2289.4,1779.6,386.6,853.5,2271.3,199.3,69
0.123834,399.5,122.2,804.6,313.2,2312.2,1483.1,387.4,817.2,2261.1,198.6,68.3
0.125834,397.2,140.8,769.4,350.9,2277.9,1199.4,388.8,781.4,2247.6,197.9,67.7
0.127834,390.8,152.1,742.2,387.4,2223.8,975.3,390.5,747.2,2232.2,197.2,67.1
0.129834,382.3,158.2,721.6,429.6,2197.1,820.3,392.4,715.8,2216.1,196.6,66.5
0.131834,377.9,169.6,701.6,495.7,2185.5,723.5,394.3,688.4,2200.7,196,65.9
0.133834,381.9,194.8,677.4,585.5,2163.2,678.2,396.1,665.9,2187.2,195.4,65.3
0.135834,392.5,231.2,651.5,690.8,2138.1,694.7,397.4,649.2,2176.7,194.9,64.5
0.137834,404.5,266.6,627.1,859.5,2140.1,823.8,398.3,638.9,2170,194.3,63.7
0.139834,407.2,284.6,622.9,1286.6,2283.9,1261.0,398.6,635.5,2167.7,193.9,62.8
