time,f1,b1,f2,b2,f3,b3,f1p,f2p,f3p,f0,intensity
0.025651,547.9,271.5,1404.7,276.9,2567.7,379.5,623.4,1536.8,2603.6,204.4,72.6
0.027651,592.8,241.8,1461.3,238.7,2594.6,333.1,624.7,1543.8,2605.5,204.6,72.9
0.029651,630.2,217.7,1515.2,207.2,2610.7,278.1,626.9,1555.4,2608.6,204.9,73.2
0.031651,658.2,200.7,1569.1,180.6,2619.5,227.2,629.7,1571.4,2612.9,205.1,73.4
0.033651,673.5,193.5,1622.1,154.1,2625.7,186.6,633,1591.8,2618.4,205.5,73.7
0.035651,676.5,195.6,1664.4,130.6,2632.0,159.8,636.6,1616.2,2624.8,205.8,73.9
0.037651,673.1,203.9,1699.9,112.7,2639.5,143.1,640.1,1644.5,2632.2,206.2,74.2
0.039651,666.7,212.5,1733.6,99.9,2648.3,134.1,643.4,1676.1,2640.3,206.6,74.4
0.041651,657.7,212.3,1769.9,88.2,2658.9,129.8,646.1,1710.9,2649.2,207.1,74.6
0.043651,646.6,197.5,1804.3,77.0,2670.7,128.8,648,1748.4,2658.6,207.6,74.8
0.045651,635.1,172.6,1835.8,67.7,2683.0,130.8,648.8,1788.2,2668.4,208.1,74.9
0.047651,626.5,147.3,1864.1,62.7,2693.0,137.1,648.3,1829.7,2678.5,208.7,74.9
0.049651,622.5,130.5,1888.2,63.7,2697.2,147.4,646.4,1872.4,2688.7,209.3,75
0.051651,620.3,119.4,1912.3,70.3,2697.3,158.3,642.8,1915.9,2699,210,75
0.053651,617.8,109.5,1942.0,82.4,2696.9,165.0,637.6,1959.6,2709.1,210.7,75
0.055651,614.9,98.8,1979.2,96.4,2699.5,163.3,630.7,2003,2719.1,211.4,75
0.057651,611.7,86.6,2025.7,106.9,2706.6,154.9,622.2,2045.6,2728.8,212.1,75
0.059651,608.4,74.2,2076.5,110.0,2717.8,146.1,612.2,2086.9,2738.1,212.9,75
0.061651,605.4,65.6,2118.6,109.9,2730.7,144.6,600.8,2126.4,2747,213.7,74.9
0.063651,601.9,62.3,2152.4,112.5,2745.9,151.1,588.2,2163.8,2755.5,214.5,74.7
0.065651,596.6,66.4,2181.3,120.8,2764.9,160.0,574.8,2198.8,2763.5,215.4,74.5
0.067651,589.0,79.5,2205.8,135.2,2783.9,162.8,560.8,2231.2,2771,216.2,74.3
0.069651,576.9,103.7,2228.5,157.2,2798.3,160.8,546.4,2260.7,2778.1,217.1,74.1
0.071651,555.9,137.5,2249.7,189.8,2804.2,161.4,532,2287.3,2784.9,217.9,73.9
0.073651,526.3,163.6,2268.4,226.1,2802.3,165.7,517.9,2311.1,2791.3,218.8,73.8
0.075651,493.5,164.4,2291.0,255.4,2798.5,169.5,504.3,2332.1,2797.4,219.6,73.8
0.077651,468.0,139.7,2324.8,266.3,2799.3,172.5,491.5,2350.5,2803.5,220.5,73.9
0.079651,453.9,106.9,2370.9,260.0,2808.3,179.2,479.8,2366.6,2809.4,221.3,74.1
0.081651,449.0,83.4,2413.3,248.9,2821.8,190.3,469.2,2380.8,2815.4,222,74.3
0.083651,447.5,69.5,2444.4,243.7,2833.4,202.7,460,2393.3,2821.4,222.8,74.5
0.085651,446.3,61.0,2462.4,248.0,2838.6,213.4,452.2,2404.7,2827.7,223.5,74.7
0.087651,444.7,55.7,2467.1,259.3,2837.5,219.4,445.8,2415.4,2834.3,224.1,74.9
0.089651,443.0,51.7,2461.8,274.9,2834.4,222.0,440.8,2425.8,2841.2,224.7,75
0.091651,441.2,48.1,2450.1,293.2,2832.2,223.0,437.1,2436.4,2848.6,225.3,75.1
0.093651,439.7,44.6,2440.5,311.1,2832.3,223.7,434.6,2447.4,2856.3,225.8,75.1
0.095651,438.7,41.3,2440.0,328.9,2835.8,225.7,433.1,2459.4,2864.6,226.2,75.1
0.097651,438.5,38.5,2455.3,343.7,2845.5,233.9,432.5,2472.5,2873.2,226.6,75
0.099651,438.9,36.7,2485.6,343.3,2862.7,254.1,432.5,2486.9,2882.3,226.9,74.9
0.101651,439.2,35.4,2521.4,315.1,2889.6,286.6,432.9,2502.6,2891.6,227.2,74.7
0.103651,438.8,34.4,2546.4,269.9,2924.9,312.8,433.6,2519.8,2901.3,227.4,74.5
0.105651,437.8,34.2,2555.9,244.2,2950.9,314.6,434.3,2538.2,2911.1,227.5,74.3
0.107651,436.3,35.0,2559.1,246.6,2961.2,302.1,434.9,2557.7,2921,227.5,74
0.109651,434.4,36.7,2561.3,275.1,2959.4,284.9,435.1,2578,2930.7,227.5,73.7
0.111651,432.3,38.6,2566.8,315.9,2952.6,270.0,434.9,2598.7,2940.3,227.4,73.4
0.113651,430.1,40.4,2583.3,346.7,2945.8,264.1,434.1,2619.3,2949.5,227.2,73
0.115651,427.9,41.8,2613.7,335.8,2942.7,277.6,432.7,2639.5,2958.2,227,72.6
0.117651,425.7,43.2,2645.1,278.8,2949.4,311.8,430.6,2658.6,2966.3,226.7,72.2
0.119651,423.6,44.7,2662.2,220.8,2966.0,347.7,427.9,2676.3,2973.5,226.4,71.9
0.121651,421.3,46.6,2671.9,184.2,2984.4,378.0,424.6,2691.9,2980,226,71.5
0.123651,418.8,48.2,2682.4,169.9,2995.1,401.6,420.8,2705.2,2985.4,225.5,71.1
0.125651,416.3,48.5,2696.9,170.9,2992.8,413.7,416.4,2715.7,2989.8,225,70.7
0.127651,414.0,48.0,2713.2,175.1,2985.2,417.5,411.7,2723.2,2993.1,224.5,70.2
0.129651,411.7,47.8,2726.9,178.3,2979.1,417.8,406.6,2727.5,2995.4,223.9,69.7
0.131651,408.5,49.2,2736.9,185.3,2972.6,425.8,401.5,2728.4,2996.6,223.3,69.1
0.133651,403.0,52.7,2748.5,202.9,2959.1,459.6,396.2,2726.1,2996.7,222.7,68.5
0.135651,393.7,58.1,2762.8,233.4,2937.4,524.2,391,2720.7,2995.9,222.1,67.8
0.137651,381.0,64.5,2761.5,279.3,2931.4,553.2,386,2712.5,2994.2,221.5,67.2
0.139651,367.3,71.0,2719.9,316.1,2977.6,509.0,381.2,2701.8,2991.8,220.9,66.6
0.141651,358.9,76.7,2677.6,293.0,3047.2,465.6,376.7,2689.2,2988.9,220.3,66.2
0.143651,361.7,79.6,2667.9,267.8,3091.4,443.0,372.6,2675.1,2985.5,219.7,65.9
0.145651,370.7,77.6,2677.0,265.6,3101.2,447.4,368.8,2660.2,2981.9,219.1,65.6
0.147651,379.1,71.9,2692.6,293.3,3069.5,478.8,365.6,2645.1,2978.1,218.5,65.3
0.149651,383.0,67.4,2708.4,364.4,2990.7,493.6,362.7,2630.4,2974.5,218,64.9
0.151651,383.0,67.3,2694.5,530.2,2904.8,375.4,360.3,2616.7,2971.1,217.5,64.4
0.153651,379.8,72.8,2609.8,598.1,2901.0,269.5,358.4,2604.7,2968.1,217.1,63.8
0.155651,372.9,85.1,2546.8,544.2,2920.5,225.9,356.9,2594.8,2965.6,216.6,63.1
0.157651,360.7,102.4,2517.0,472.6,2946.2,200.1,355.8,2587.4,2963.8,216.2,62.4
0.159651,337.9,117.6,2512.9,431.3,2961.2,182.2,355.2,2582.8,2962.6,215.9,61.6
0.161651,305.4,108.6,2536.6,439.8,2954.7,185.6,355,2581.2,2962.3,215.6,60.8
