time,f1,b1,f2,b2,f3,b3,f1p,f2p,f3p,f0,intensity
0.025073,292.8,285.6,1312.6,199.4,2896.2,897.8,339.5,1394,2833.6,255.1,78.8
0.027073,304.1,390.7,1343.4,247.6,2938.7,1248.7,340.1,1406,2838.2,255.6,78.8
0.029073,314.0,513.3,1389.6,300.2,2881.8,1808.3,341.1,1425.8,2845.7,256,78.7
0.031073,325.6,626.6,1448.0,337.5,2743.5,2335.2,342.3,1452.6,2856,256.5,78.6
0.033073,342.1,696.7,1506.1,344.4,2621.6,2612.6,343.8,1485.7,2868.6,257.1,78.5
0.035073,358.0,736.0,1558.1,332.9,2620.6,2809.6,345.4,1524.2,2883.4,257.6,78.3
0.037073,366.8,789.7,1612.9,314.0,2839.9,3641.4,346.9,1566.9,2899.8,258.2,78.2
0.039073,369.6,863.4,1675.1,281.4,3121.5,436.9,348.4,1612.7,2917.5,258.7,78.1
0.041073,376.0,878.5,1733.1,230.5,3084.6,364.3,349.6,1660.3,2935.9,259.3,78.1
0.043073,385.9,787.8,1775.8,177.1,3075.5,338.3,350.5,1708.5,2954.6,259.8,78.1
0.045073,389.9,685.9,1805.2,134.7,3081.7,344.6,350.9,1756,2973,260.4,78.2
0.047073,387.1,620.1,1827.1,105.5,3088.5,352.9,350.9,1801.7,2990.8,261,78.3
0.049073,379.9,580.5,1844.3,87.2,3080.0,343.9,350.2,1844.6,3007.4,261.5,78.5
0.051073,370.2,552.5,1858.1,77.9,3053.8,320.6,349,1883.8,3022.5,262.1,78.6
0.053073,358.3,535.1,1869.8,76.6,3019.7,292.6,347.3,1918.5,3035.6,262.6,78.7
0.055073,344.1,530.3,1880.8,84.4,2990.7,266.3,344.9,1948.4,3046.6,263.1,78.8
0.057073,328.4,538.0,1893.8,103.6,2975.4,243.8,342.1,1973.1,3055.2,263.6,78.8
0.059073,311.9,560.9,1913.4,133.9,2973.4,222.1,338.9,1992.6,3061.3,264,78.9
0.061073,295.6,601.0,1944.4,165.0,2978.2,198.7,335.3,2007.1,3064.8,264.5,78.9
0.063073,284.8,638.4,1983.7,181.1,2986.2,178.7,331.6,2016.9,3065.8,264.9,78.9
0.065073,292.3,607.3,2020.4,184.5,2999.4,174.2,327.8,2022.6,3064.5,265.2,78.9
0.067073,308.3,497.3,2049.4,191.7,3023.7,191.9,324.2,2025.1,3061,265.5,78.8
0.069073,316.4,387.5,2072.6,208.8,3059.8,224.3,320.7,2025.2,3055.5,265.8,78.7
0.071073,318.0,309.9,2091.8,229.9,3090.9,247.3,317.6,2023.8,3048.6,266,78.6
0.073073,316.8,255.6,2106.4,252.1,3094.6,243.7,315,2022.2,3040.5,266.1,78.4
0.075073,314.5,211.7,2112.1,284.8,3073.4,213.9,313,2021.3,3031.6,266.2,78.1
0.077073,312.5,176.5,2100.8,339.6,3046.5,169.2,311.6,2022.3,3022.5,266.3,77.8
0.079073,312.1,153.7,2065.1,412.7,3029.2,125.5,310.9,2026.1,3013.5,266.2,77.5
0.081073,313.9,142.3,2014.4,473.2,3023.0,94.0,311,2033.7,3005.2,266.2,77.1
0.083073,317.7,138.3,1986.6,500.1,3021.9,77.9,311.8,2045.9,2998,266,76.6
0.085073,322.9,138.4,2000.6,516.2,3020.8,74.0,313.2,2063.3,2992.3,265.8,76.1
0.087073,328.7,138.9,2040.9,542.0,3018.7,77.3,315.3,2086.3,2988.4,265.5,75.6
0.089073,334.0,137.6,2090.1,585.1,3016.6,83.7,317.9,2115.3,2986.6,265.1,75
0.091073,338.4,133.5,2136.6,649.1,3014.1,90.9,320.9,2150.2,2987.2,264.7,74.5
0.093073,341.1,126.6,2169.3,737.8,3008.9,97.5,324.1,2190.8,2990.2,264.2,73.9
0.095073,342.2,119.2,2182.3,850.7,2999.4,104.0,327.6,2236.8,2995.7,263.7,73.4
0.097073,341.8,114.2,2188.9,978.0,2985.8,112.9,331,2287.7,3003.7,263,72.9
0.099073,340.4,112.4,2216.5,1122.5,2969.2,125.4,334.3,2342.5,3014.1,262.4,72.5
0.101073,338.4,114.5,2316.6,1283.3,2955.0,142.0,337.3,2400.6,3026.5,261.6,72.2
0.103073,336.5,121.3,2548.6,1249.3,2952.4,169.4,339.9,2460.7,3040.9,260.8,71.9
0.105073,334.6,131.9,2696.0,892.5,2970.0,213.7,342.1,2521.9,3056.8,260,71.8
0.107073,333.2,144.6,2742.9,604.2,3013.4,261.3,343.8,2582.9,3073.7,259.1,71.8
0.109073,332.3,155.4,2773.9,409.1,3077.2,295.9,344.8,2642.6,3091.4,258.2,71.9
0.111073,331.9,159.6,2793.7,273.1,3154.1,290.4,345.3,2699.8,3109.2,257.2,72.1
0.113073,331.9,157.6,2799.8,196.1,3209.1,240.0,345.2,2753.4,3126.8,256.2,72.3
0.115073,332.5,153.2,2799.1,161.5,3228.4,193.2,344.4,2802.4,3143.5,255.2,72.6
0.117073,332.7,144.7,2801.0,153.5,3227.0,164.7,343.2,2845.9,3159.1,254.2,72.9
0.119073,332.1,132.9,2811.8,161.7,3219.0,147.8,341.5,2883.1,3173,253.2,73.1
0.121073,332.2,122.9,2833.6,173.8,3212.4,138.5,339.5,2913.5,3184.9,252.1,73.4
0.123073,333.7,118.0,2862.3,174.8,3209.7,137.2,337.2,2936.6,3194.5,251.1,73.6
0.125073,335.7,117.1,2885.6,161.4,3207.9,142.2,334.8,2952.4,3201.5,250.1,73.7
0.127073,336.6,117.4,2895.5,148.2,3199.6,151.6,332.3,2960.7,3205.9,249.1,73.7
0.129073,334.6,116.4,2896.3,149.2,3178.8,166.7,329.9,2961.8,3207.5,248.1,73.6
0.131073,329.1,112.4,2896.8,167.2,3148.3,183.7,327.6,2956,3206.3,247.2,73.4
0.133073,320.8,104.9,2903.6,191.0,3123.2,200.8,325.5,2943.9,3202.6,246.2,73
0.135073,311.8,95.3,2917.3,201.3,3113.9,234.0,323.6,2926.3,3196.5,245.4,72.4
0.137073,306.0,88.1,2926.9,192.2,3122.3,290.6,322.1,2903.9,3188.2,244.5,71.7
0.139073,308.5,89.8,2917.9,180.4,3148.7,336.3,320.9,2877.7,3178.2,243.7,70.7
0.141073,324.6,102.6,2891.1,172.9,3182.6,337.1,320,2848.8,3166.8,242.9,69.6
0.143073,354.3,114.5,2860.8,164.5,3207.7,308.0,319.4,2818.2,3154.5,242.2,68.3
0.145073,383.8,109.2,2841.6,162.2,3217.0,278.4,319,2787.2,3141.8,241.6,67.1
0.147073,395.1,99.0,2836.0,177.1,3218.6,264.8,318.9,2756.7,3129.2,240.9,66.2
0.149073,381.2,100.3,2844.4,221.0,3217.4,281.2,319,2727.8,3117,240.4,65.7
0.151073,345.3,99.9,2872.9,303.2,3196.5,348.5,319.2,2701.5,3105.9,239.8,65.7
0.153073,307.9,81.0,2951.4,394.4,3110.3,505.5,319.5,2678.7,3096.1,239.4,65.9
0.155073,285.9,60.8,3001.2,244.9,3045.0,1023.0,319.7,2660.2,3088.1,238.9,66
0.157073,275.3,51.4,2996.0,181.3,3067.7,1731.4,319.9,2646.5,3082.2,238.5,65.9
0.159073,269.8,50.2,2152.9,2811.2,2991.7,145.7,320.1,2638.1,3078.6,238.2,65.5
0.161073,267.2,54.2,1857.4,2085.0,2987.9,125.9,320.1,2635.2,3077.3,237.9,64.8
