time,f1,b1,f2,b2,f3,b3,f1p,f2p,f3p,f0,intensity
0.025259,472.4,89.9,1005.5,158.0,2726.6,241.0,474.6,1056.6,2822.2,160.1,71.4
0.027259,473.0,100.8,1020.5,154.7,2738.7,253.6,476.4,1059.7,2819.3,159.7,71.3
0.029259,472.9,115.5,1038.8,159.9,2752.6,274.5,479.3,1064.8,2814.6,159.3,71.1
0.031259,475.3,134.1,1064.2,166.4,2772.3,276.3,483.4,1071.9,2808.3,158.9,70.8
0.033259,479.2,154.7,1092.0,168.7,2799.2,260.8,488.6,1080.8,2800.5,158.4,70.5
0.035259,483.9,173.5,1112.1,167.6,2820.8,245.9,494.9,1091.4,2791.6,157.9,70.3
0.037259,494.3,193.5,1126.1,172.5,2834.0,235.6,502.1,1103.5,2781.8,157.4,70
0.039259,512.8,213.4,1138.3,190.8,2835.8,226.6,510.2,1116.9,2771.5,156.9,69.8
0.041259,537.3,226.7,1155.7,217.3,2827.0,214.8,519,1131.5,2761,156.4,69.7
0.043259,558.3,220.7,1179.0,233.4,2814.6,204.1,528.6,1147,2750.6,155.9,69.6
0.045259,566.3,199.4,1197.6,226.9,2804.6,204.6,538.8,1163.2,2740.7,155.4,69.4
0.047259,568.0,174.2,1209.1,205.4,2790.6,212.3,549.4,1179.7,2731.5,154.9,69.3
0.049259,569.0,156.4,1214.0,184.6,2769.5,215.2,560.3,1196.4,2723.3,154.3,69.2
0.051259,571.2,146.4,1216.1,171.2,2739.3,212.3,571.4,1213,2716.2,153.8,69
0.053259,575.4,144.5,1218.3,168.9,2706.9,207.9,582.7,1229.2,2710.5,153.3,68.7
0.055259,581.0,146.9,1222.5,175.5,2681.3,207.3,593.8,1244.8,2706.2,152.8,68.4
0.057259,587.2,150.4,1229.9,191.4,2671.4,219.3,604.8,1259.6,2703.3,152.3,68.1
0.059259,594.5,156.4,1242.7,220.6,2676.3,240.5,615.4,1273.3,2701.8,151.8,67.7
0.061259,606.3,167.4,1267.6,263.8,2685.3,256.0,625.6,1285.8,2701.5,151.4,67.3
0.063259,620.8,179.5,1299.3,283.3,2687.0,254.0,635.2,1296.9,2702.5,150.9,66.9
0.065259,636.5,195.6,1321.3,261.4,2680.3,243.0,644.1,1306.4,2704.4,150.5,66.5
0.067259,655.1,220.5,1329.0,226.2,2672.9,231.5,652.2,1314.3,2707.1,150.1,66.2
0.069259,671.2,244.8,1329.0,202.8,2675.1,225.2,659.5,1320.5,2710.4,149.8,65.9
0.071259,680.2,265.5,1324.9,186.5,2684.9,226.1,665.8,1325,2713.9,149.4,65.6
0.073259,682.3,281.8,1318.5,174.0,2690.9,232.2,671.1,1327.9,2717.5,149.1,65.5
0.075259,681.7,293.3,1312.0,164.8,2690.0,238.6,675.4,1329,2721,148.8,65.3
0.077259,678.8,298.7,1308.5,164.9,2691.6,244.7,678.6,1328.7,2724.2,148.5,65.1
0.079259,673.6,301.5,1307.3,179.3,2704.6,256.6,680.8,1326.8,2726.9,148.3,64.9
0.081259,670.6,301.1,1307.3,209.4,2727.0,273.6,681.8,1323.7,2729.1,148,64.7
0.083259,672.6,297.7,1309.1,239.6,2749.0,285.6,681.9,1319.5,2730.6,147.8,64.5
0.085259,678.3,293.9,1314.3,259.3,2768.9,288.0,680.9,1314.2,2731.4,147.7,64.3
0.087259,686.5,293.1,1321.7,267.1,2779.6,274.6,679,1308.2,2731.7,147.5,64.2
0.089259,695.5,296.6,1327.1,269.1,2776.1,242.5,676.2,1301.6,2731.4,147.4,64.1
0.091259,699.5,304.4,1326.0,269.1,2762.4,205.4,672.6,1294.6,2730.7,147.3,64
0.093259,694.9,316.7,1315.8,271.2,2745.4,174.5,668.2,1287.3,2729.8,147.2,64.1
0.095259,679.2,331.3,1294.3,277.9,2731.0,154.5,663.2,1279.9,2728.8,147.1,64.1
0.097259,656.3,342.3,1268.9,287.6,2727.6,147.3,657.6,1272.5,2728,147.1,64.1
0.099259,632.0,346.3,1246.9,298.6,2736.3,149.1,651.5,1265.2,2727.6,147,64.1
0.101259,618.6,347.7,1238.6,306.8,2749.1,153.3,645,1258,2727.7,147,64.1
0.103259,615.2,353.4,1241.8,307.0,2756.6,153.8,638.1,1251.1,2728.5,147,64
0.105259,613.9,363.3,1248.3,302.2,2753.0,147.8,631,1244.2,2730.3,147,64
0.107259,611.1,370.6,1252.1,301.0,2741.9,138.0,623.7,1237.5,2733,147,63.9
0.109259,608.5,369.4,1251.4,299.7,2730.7,128.3,616.3,1230.9,2736.9,147.1,63.9
0.111259,605.1,363.1,1244.8,294.0,2725.2,123.5,608.7,1224.1,2741.9,147.1,63.8
0.113259,601.0,359.5,1232.9,291.6,2726.1,126.4,601.1,1217.1,2748,147.2,63.8
0.115259,600.0,362.9,1217.9,299.0,2732.9,139.0,593.6,1209.7,2755.2,147.2,63.8
0.117259,599.6,369.9,1198.7,296.2,2742.4,160.9,586,1201.7,2763.3,147.3,63.9
0.119259,587.9,369.5,1174.6,256.4,2748.6,193.1,578.4,1193,2772.2,147.4,63.9
0.121259,568.5,353.5,1154.9,207.1,2747.9,228.3,570.9,1183.4,2781.7,147.4,64.1
0.123259,553.5,331.7,1141.3,175.3,2749.6,251.0,563.4,1172.7,2791.6,147.5,64.2
0.125259,547.6,319.0,1132.9,166.5,2765.4,246.6,555.9,1160.9,2801.6,147.6,64.3
0.127259,547.9,314.8,1125.7,173.2,2792.6,224.5,548.6,1147.7,2811.6,147.7,64.4
0.129259,551.5,316.6,1118.5,186.8,2815.9,202.5,541.2,1133.1,2821.1,147.7,64.5
0.131259,555.0,321.8,1110.8,199.5,2832.9,191.9,533.9,1117.2,2830.1,147.8,64.5
0.133259,555.4,329.0,1100.6,209.9,2847.4,201.9,526.7,1099.9,2838.4,147.9,64.5
0.135259,550.3,335.8,1086.0,216.9,2859.7,240.3,519.6,1081.3,2845.7,148,64.4
0.137259,536.6,337.3,1065.6,215.6,2867.6,315.3,512.6,1061.5,2851.9,148.1,64.3
0.139259,516.9,332.4,1045.7,206.2,2867.3,410.4,505.7,1040.8,2856.9,148.1,64.3
0.141259,496.1,327.3,1027.0,198.5,2864.6,518.8,499,1019.3,2860.8,148.2,64.3
0.143259,478.4,324.2,1008.3,196.5,2866.0,629.8,492.5,997.3,2863.4,148.3,64.3
0.145259,466.3,319.6,992.1,196.0,2874.8,691.7,486.2,975.2,2865,148.4,64.3
0.147259,455.9,312.5,974.9,195.5,2891.9,689.7,480.2,953.3,2865.5,148.5,64.3
0.149259,446.5,306.0,955.5,196.8,2905.9,646.3,474.5,931.9,2865.1,148.5,64.3
0.151259,437.1,299.6,934.5,198.6,2913.3,582.2,469.3,911.5,2864,148.6,64.2
0.153259,429.6,294.9,919.9,202.2,2920.0,525.1,464.5,892.4,2862.4,148.7,64
0.155259,424.8,296.5,911.1,213.6,2929.6,486.9,460.2,874.9,2860.5,148.8,63.9
0.157259,424.2,310.1,902.7,238.7,2938.3,463.1,456.5,859.5,2858.4,148.8,63.7
0.159259,429.5,339.2,890.2,282.0,2939.7,467.3,453.4,846.5,2856.4,148.9,63.6
0.161259,443.4,392.5,864.5,362.6,2919.5,530.9,450.9,836,2854.7,149,63.5
0.163259,468.4,458.3,815.8,470.7,2864.3,686.6,449.1,828.4,2853.3,149,63.4
0.165259,505.2,495.5,746.0,578.5,2722.7,903.3,448,823.7,2852.5,149.1,63.3
0.167259,533.6,428.9,692.2,730.7,2554.9,905.3,447.7,822.1,2852.2,149.2,63.3
