time,f1,b1,f2,b2,f3,b3,f1p,f2p,f3p,f0,intensity
0.025429,327.0,166.7,1409.7,301.4,2127.4,114.1,375.5,1371,2192.9,186.2,71.6
0.027429,360.9,174.1,1396.7,340.0,2154.2,136.3,379,1368.3,2211.4,186.3,71.5
0.029429,394.3,182.7,1382.4,401.2,2189.7,181.6,384.8,1363.8,2241.4,186.5,71.3
0.031429,417.6,193.7,1362.2,454.8,2242.4,255.1,392.4,1357.7,2281.7,186.6,71.3
0.033429,426.5,204.9,1334.8,455.8,2314.3,346.6,401.5,1349.9,2330.6,186.8,71.3
0.035429,429.2,209.3,1310.9,410.3,2403.3,435.5,411.6,1340.7,2386.2,187,71.3
0.037429,432.9,207.0,1294.4,348.0,2521.8,502.3,422.1,1330.1,2446.2,187.2,71.4
0.039429,438.8,202.8,1286.4,296.1,2658.4,400.5,432.6,1318.3,2508.2,187.4,71.5
0.041429,444.8,201.4,1284.1,263.3,2669.1,285.2,442.4,1305.4,2569.8,187.7,71.6
0.043429,449.1,201.4,1280.8,243.8,2671.1,261.5,451,1291.6,2628.6,187.9,71.6
0.045429,450.3,202.0,1273.2,238.6,2679.7,287.2,457.8,1277,2682.3,188.2,71.7
0.047429,450.5,208.7,1263.7,248.1,2702.3,352.5,462.5,1261.7,2729,188.5,71.7
0.049429,451.4,226.3,1256.6,272.2,2742.0,429.5,464.7,1245.9,2766.9,188.8,71.7
0.051429,452.8,251.5,1249.3,299.9,2777.8,463.6,464.1,1229.7,2794.9,189.1,71.7
0.053429,453.1,277.9,1233.0,313.4,2789.9,434.7,460.6,1213.1,2811.9,189.5,71.8
0.055429,450.9,295.2,1208.0,299.2,2791.6,369.7,454.3,1196.2,2817.8,189.8,71.8
0.057429,448.5,306.4,1185.8,271.7,2789.5,311.6,445.3,1179.1,2812.4,190.2,71.9
0.059429,444.7,319.6,1166.7,247.4,2782.6,279.3,433.6,1161.8,2796.5,190.6,72
0.061429,433.6,331.6,1148.0,235.0,2768.3,285.6,419.8,1144.3,2770.9,191,72.1
0.063429,415.4,335.9,1130.6,234.3,2742.7,325.8,404.2,1126.7,2736.9,191.4,72.2
0.065429,392.5,330.5,1112.9,245.9,2696.6,397.5,387.2,1108.9,2696.2,191.8,72.4
0.067429,371.6,321.3,1093.3,265.9,2631.0,478.0,369.5,1091.1,2650.5,192.2,72.5
0.069429,351.1,313.3,1067.5,279.2,2554.4,550.2,351.5,1073.1,2601.7,192.6,72.6
0.071429,330.0,300.1,1041.7,267.0,2502.4,611.7,333.7,1055.1,2552,193,72.7
0.073429,310.1,273.3,1022.4,238.0,2490.3,659.4,316.6,1037,2503.1,193.5,72.8
0.075429,291.6,229.6,1005.2,204.2,2489.1,658.0,300.8,1019,2456.9,193.9,72.9
0.077429,276.5,181.9,989.3,177.9,2462.2,610.6,286.5,1001,2415,194.3,73
0.079429,265.9,147.2,978.3,169.5,2424.3,571.7,274.2,983.3,2378.6,194.7,73.1
0.081429,258.7,126.4,973.0,186.2,2386.1,581.3,263.8,965.8,2348.9,195.1,73.3
0.083429,255.2,118.5,970.4,230.4,2349.8,628.3,255.7,948.9,2326.4,195.5,73.3
0.085429,254.1,117.9,961.3,298.4,2314.8,662.5,249.7,932.5,2311.5,195.8,73.4
0.087429,254.1,121.6,936.6,360.2,2290.6,654.5,245.9,916.9,2304.1,196.2,73.4
0.089429,253.8,126.3,899.7,391.0,2277.2,643.3,244,902.3,2304,196.5,73.4
0.091429,252.5,131.7,860.3,397.0,2276.5,683.1,243.7,888.9,2310.4,196.8,73.4
0.093429,251.5,135.7,842.0,387.8,2304.5,798.6,244.9,876.8,2322.6,197.1,73.5
0.095429,251.6,135.0,848.1,367.7,2351.9,896.3,247.1,866.2,2339.4,197.3,73.5
0.097429,251.9,132.8,858.5,346.7,2393.4,865.0,250,857.4,2359.8,197.5,73.5
0.099429,252.3,136.0,860.2,342.8,2416.8,762.6,253.2,850.4,2382.4,197.7,73.5
0.101429,252.7,145.4,853.8,354.2,2426.1,684.9,256.5,845.5,2406,197.8,73.5
0.103429,253.1,157.7,845.4,372.1,2427.0,655.3,259.5,842.7,2429.7,197.9,73.4
0.105429,253.9,166.6,843.1,391.6,2424.5,685.9,261.9,842,2452.2,198,73.3
0.107429,255.6,170.2,849.6,417.6,2426.3,780.5,263.7,843.6,2472.8,198,73.1
0.109429,258.4,168.8,861.4,447.0,2448.6,905.6,264.6,847.4,2490.8,198,73
0.111429,261.0,164.8,870.8,472.2,2495.6,977.3,264.5,853.4,2505.8,197.9,72.9
0.113429,262.7,159.5,877.0,494.4,2543.5,952.7,263.6,861.6,2517.6,197.8,72.8
0.115429,263.0,154.4,885.7,514.9,2563.1,874.6,261.9,871.7,2526.1,197.7,72.7
0.117429,262.2,150.6,897.6,536.6,2558.0,801.3,259.4,883.7,2531.5,197.5,72.6
0.119429,260.7,148.7,905.0,566.2,2535.5,727.9,256.4,897.3,2534.1,197.3,72.5
0.121429,258.7,149.5,901.4,598.5,2509.9,655.1,253,912.4,2534.4,197.1,72.4
0.123429,256.1,153.7,892.3,627.5,2498.7,594.9,249.5,928.7,2533,196.9,72.4
0.125429,252.5,158.2,894.0,636.5,2508.5,571.7,246,946,2530.4,196.6,72.3
0.127429,247.5,155.1,917.7,611.0,2524.0,577.0,242.8,963.9,2527.2,196.3,72.3
0.129429,240.7,142.1,962.3,555.8,2532.3,586.7,239.9,982.3,2524,195.9,72.2
0.131429,234.0,126.0,1011.0,496.7,2530.7,581.2,237.6,1000.8,2521.2,195.6,72.2
0.133429,230.4,114.6,1044.3,455.8,2525.0,569.5,236,1019.2,2519.3,195.2,72.2
0.135429,230.9,107.6,1060.0,431.6,2519.5,573.0,235,1037.2,2518.4,194.8,72.2
0.137429,233.4,102.3,1068.1,407.0,2518.2,602.3,234.7,1054.5,2518.7,194.4,72.2
0.139429,234.9,97.5,1081.0,370.4,2524.8,653.4,235,1070.9,2520.2,194,72.1
0.141429,234.9,95.4,1101.5,329.0,2541.7,729.2,235.9,1086.2,2522.8,193.6,72
0.143429,234.9,98.0,1121.7,303.8,2558.0,805.9,237.2,1100.2,2526.2,193.2,71.8
0.145429,235.6,104.5,1137.9,299.2,2563.5,865.7,238.8,1112.7,2530.2,192.8,71.5
0.147429,237.5,112.1,1146.9,315.6,2564.7,905.3,240.5,1123.5,2534.5,192.3,71.2
0.149429,239.8,119.8,1149.3,351.9,2573.5,946.1,242.1,1132.6,2538.5,191.9,70.9
0.151429,242.7,129.9,1147.2,421.3,2584.9,1009.3,243.6,1139.7,2542.2,191.5,70.6
0.153429,245.9,143.8,1140.6,536.5,2566.4,1078.1,244.7,1144.9,2545,191.2,70.3
0.155429,249.2,160.6,1122.9,690.3,2496.8,1084.7,245.5,1148,2546.8,190.8,70
0.157429,252.9,179.3,1080.8,857.6,2407.5,976.6,245.7,1149,2547.4,190.4,69.7
