time,f1,b1,f2,b2,f3,b3,f1p,f2p,f3p,f0,intensity
0.025376,386.4,107.5,707.8,222.1,2386.5,433.7,399.4,725.1,2382.8,166.3,67.6
0.027376,388.9,97.7,723.9,188.1,2378.9,544.7,400.9,728.4,2384.7,165.5,68.6
0.029376,394.4,96.3,736.8,177.5,2393.0,632.0,403.3,733.6,2387.9,164.6,69.3
0.031376,402.6,94.0,746.2,175.2,2413.8,671.7,406.5,740.3,2392.8,163.7,69.8
0.033376,414.2,87.6,754.5,180.3,2431.0,697.4,410.3,747.9,2399.6,162.7,70.1
0.035376,425.7,79.3,762.6,191.6,2442.4,739.2,414.6,755.8,2408.7,161.7,70.3
0.037376,434.9,72.3,771.4,208.4,2451.1,800.8,419.1,763.3,2420.4,160.7,70.3
0.039376,440.1,68.7,778.5,226.2,2444.5,856.2,423.5,770,2434.9,159.7,70.3
0.041376,442.1,66.9,781.8,239.1,2410.7,883.4,427.8,775.3,2452.5,158.6,70.2
0.043376,441.3,65.5,779.2,240.3,2389.9,836.9,431.6,778.9,2473.1,157.6,70
0.045376,438.2,63.9,771.2,227.7,2413.6,733.1,434.7,780.7,2496.8,156.6,69.7
0.047376,432.3,62.7,760.6,208.2,2462.2,612.1,437.1,780.6,2523.1,155.5,69.4
0.049376,426.0,63.2,754.1,200.4,2509.1,539.4,438.7,778.9,2551.7,154.5,69.1
0.051376,422.7,65.0,755.4,217.9,2561.0,524.0,439.2,776.1,2581.9,153.5,68.7
0.053376,424.8,65.6,763.6,263.4,2627.0,529.4,438.9,772.7,2612.9,152.4,68.4
0.055376,429.5,62.5,775.1,333.7,2703.8,515.6,437.6,769.2,2643.7,151.5,68
0.057376,433.9,56.8,785.4,415.7,2769.3,486.8,435.6,766.5,2673.3,150.5,67.6
0.059376,436.5,52.9,790.6,461.0,2796.0,459.2,432.8,765,2700.7,149.5,67.2
0.061376,436.6,53.8,793.2,443.1,2793.1,417.2,429.4,765.3,2724.7,148.6,66.7
0.063376,433.3,60.4,793.1,391.1,2786.6,369.7,425.6,767.7,2744.3,147.7,66.2
0.065376,427.3,72.3,792.5,350.1,2786.0,338.5,421.6,772.2,2758.7,146.8,65.6
0.067376,420.7,86.2,794.1,338.6,2784.5,342.6,417.6,778.7,2766.9,146,65.1
0.069376,413.1,97.3,796.7,333.2,2769.5,393.9,413.7,786.7,2768.7,145.1,64.6
0.071376,404.7,101.0,797.6,313.1,2718.2,479.7,410,795.4,2763.6,144.3,64.3
0.073376,399.6,98.0,796.1,290.1,2648.9,502.7,406.8,804,2751.8,143.5,64
0.075376,397.4,92.4,793.1,281.4,2609.0,475.4,404,811.1,2733.4,142.8,63.8
0.077376,397.1,90.3,788.1,299.1,2607.3,461.2,401.8,815.6,2709.3,142,63.6
0.079376,399.6,98.2,779.0,357.7,2624.9,471.7,400.2,816.2,2680.2,141.3,63.4
0.081376,406.8,121.1,761.5,481.5,2634.7,513.5,399.1,811.9,2647.2,140.6,63.3
0.083376,414.6,149.3,734.0,629.1,2610.8,588.8,398.6,801.7,2611.8,139.9,63.1
0.085376,417.7,172.8,710.1,752.8,2575.9,647.9,398.5,785,2575.3,139.3,63
0.087376,414.9,182.3,705.5,821.7,2573.4,683.9,398.9,761.8,2539.4,138.6,62.9
0.089376,405.6,178.4,718.6,803.0,2584.4,714.3,399.5,732.5,2505.7,138,63
0.091376,392.7,166.3,734.2,694.7,2576.3,722.5,400.3,698,2475.6,137.4,63.1
0.093376,382.0,154.6,738.2,578.9,2549.0,688.7,401.3,659.9,2450.7,136.8,63.2
0.095376,376.8,151.2,728.2,512.8,2514.1,624.4,402.3,620.3,2432.2,136.2,63.3
0.097376,377.5,157.7,704.5,508.5,2472.6,569.6,403.2,581.7,2421.2,135.7,63.3
0.099376,384.4,168.1,664.7,538.8,2426.7,514.0,404,547.3,2418.4,135.1,63.2
0.101376,396.4,178.1,621.4,574.4,2404.3,458.6,404.6,520.2,2424.4,134.6,63
0.103376,411.2,189.8,584.4,621.7,2413.7,428.0,405.1,503.7,2439.5,134.1,62.8
0.105376,423.9,205.5,558.1,694.8,2444.9,444.5,405.4,501.2,2463.4,133.7,62.5
0.107376,429.4,221.9,543.3,777.7,2478.6,498.1,405.6,515.5,2495.9,133.2,62.3
0.109376,431.8,230.1,525.5,876.0,2511.0,562.1,405.7,549.4,2536.3,132.8,62
0.111376,431.9,227.8,504.1,937.9,2540.2,587.4,405.8,604.5,2583.8,132.4,61.8
0.113376,429.2,220.1,490.7,908.7,2569.3,553.7,405.8,681.9,2637.2,132.1,61.7
0.115376,431.5,206.1,470.3,861.6,2581.9,497.7,405.9,781.9,2695.5,131.7,61.6
0.117376,420.0,908.2,441.4,181.2,2560.3,457.0,406.1,903.5,2757.2,131.4,61.6
0.119376,341.4,1036.3,447.9,157.7,2507.1,420.9,406.4,1044.8,2821,131.2,61.6
0.121376,239.6,1182.6,446.0,148.6,2458.6,384.5,406.9,1203,2885.5,130.9,61.6
0.123376,439.6,144.0,2423.6,367.9,3400.3,625.8,407.6,1374.1,2949.3,130.7,61.5
0.125376,437.1,134.8,2395.1,394.0,3496.0,672.1,408.4,1553.5,3011.2,130.5,61.3
0.127376,440.0,118.4,2353.0,487.1,3592.4,721.7,409.3,1735.9,3069.9,130.3,61.2
0.129376,441.1,103.5,2270.9,590.5,3202.6,2292.0,410.3,1915.5,3124.2,130.2,61
0.131376,437.7,97.0,2198.0,555.3,3209.8,1398.6,411.3,2086.5,3173.3,130.1,60.9
0.133376,431.3,101.4,2198.0,479.3,3243.1,930.9,412.3,2243.1,3216.3,130,60.7
0.135376,422.7,112.2,2235.6,454.1,3216.7,799.6,413.2,2379.7,3252.4,129.9,60.6
0.137376,411.8,121.4,2300.1,501.9,3182.6,959.1,414,2491.5,3281,129.8,60.3
0.139376,403.1,126.0,2383.7,573.2,3115.6,1386.1,414.6,2574.4,3301.8,129.8,59.8
0.141376,398.7,130.5,2436.6,607.4,3112.5,1653.3,415,2625.5,3314.4,129.8,59.2
0.143376,396.0,138.0,2403.5,667.3,3281.6,1280.9,415.1,2642.7,3318.6,129.7,58.3
