time,f1,b1,f2,b2,f3,b3,f1p,f2p,f3p,f0,intensity
0.025358,927.0,110.8,1842.8,159.2,2690.2,481.5,916.1,1805.5,2664.9,0,63.5
0.027358,927.7,109.7,1839.5,148.7,2702.2,455.8,914.5,1805.3,2667.5,0,63.2
0.029358,927.5,100.1,1836.4,140.0,2715.8,428.0,911.8,1804.9,2671.8,0,62.7
0.031358,925.1,87.0,1830.5,138.5,2726.9,402.0,908,1804.3,2677.7,0,61.8
0.033358,915.6,86.6,1814.4,163.6,2721.2,411.0,903.3,1803.4,2685.2,0,60.9
0.035358,891.9,116.8,1780.1,222.6,2687.6,481.5,897.6,1802.2,2694.1,0,60.1
0.037358,868.6,146.9,1762.9,241.8,2665.0,573.8,891,1800.5,2704.2,0,59.7
0.039358,861.3,145.5,1767.8,229.9,2676.6,637.8,883.5,1798.3,2715.5,0,59.7
0.041358,861.0,129.5,1774.8,213.7,2701.6,651.6,875.2,1795.5,2727.7,0,60
0.043358,860.7,112.0,1778.6,197.5,2728.5,618.7,866.1,1792,2740.7,0,60.3
0.045358,854.3,104.8,1773.6,183.0,2747.8,565.4,856.4,1787.7,2754.3,0,60.7
0.047358,839.2,109.8,1760.5,165.4,2759.7,532.4,846,1782.4,2768.3,0,61.1
0.049358,828.2,111.4,1753.1,150.0,2770.1,535.6,835.1,1776.3,2782.5,0,61.4
0.051358,824.4,105.6,1751.1,140.9,2784.0,552.3,823.8,1769.1,2796.8,0,61.7
0.053358,821.1,98.1,1750.4,139.8,2803.7,578.1,812,1760.8,2811.1,0,61.8
0.055358,810.6,95.1,1747.9,153.4,2823.9,620.8,799.9,1751.5,2825.1,0,61.9
0.057358,788.1,97.8,1741.3,190.5,2836.1,666.4,787.5,1741.1,2838.8,0,61.9
0.059358,761.3,100.4,1729.0,240.9,2830.5,629.6,774.9,1729.6,2852,0,62
0.061358,742.6,99.5,1714.9,261.5,2825.5,527.5,762.1,1717.1,2864.7,0,62.4
0.063358,729.5,97.6,1701.0,255.5,2835.5,451.0,749.1,1703.6,2876.8,0,63.1
0.065358,719.2,93.9,1685.3,242.2,2851.6,409.1,736.1,1689.3,2888.3,0,63.8
0.067358,713.5,87.8,1669.6,229.7,2869.6,393.9,723.1,1674.2,2899.1,168.5,64.6
0.069358,711.2,81.4,1658.4,215.3,2892.5,381.8,710,1658.5,2909.3,168.8,65.3
0.071358,710.2,78.6,1656.9,195.4,2912.0,353.4,696.9,1642.2,2918.9,169,65.9
0.073358,707.3,79.9,1659.3,170.0,2921.3,322.8,683.8,1625.5,2927.9,169.3,66.3
0.075358,699.2,84.0,1656.9,149.2,2929.2,316.7,670.8,1608.6,2936.3,169.6,66.6
0.077358,687.0,89.5,1648.2,136.7,2944.9,322.0,657.9,1591.5,2944.3,169.9,66.8
0.079358,673.7,96.0,1634.8,125.7,2965.4,313.9,645.1,1574.5,2951.8,170.2,66.9
0.081358,659.8,102.9,1614.5,115.7,2987.8,297.0,632.3,1557.7,2958.9,170.5,67
0.083358,644.7,109.0,1586.6,110.9,3012.3,278.8,619.6,1541.1,2965.7,170.8,67
0.085358,622.6,115.0,1546.0,113.6,3039.5,244.6,607.1,1525,2972.2,171.1,67.1
0.087358,592.3,114.7,1497.2,118.8,3057.5,201.5,594.6,1509.3,2978.5,171.3,67.2
0.089358,559.3,101.8,1449.0,117.3,3065.0,166.9,582.3,1494.2,2984.6,171.6,67.4
0.091358,533.2,83.8,1411.2,111.4,3066.0,147.7,570.2,1479.6,2990.5,171.8,67.6
0.093358,518.1,72.2,1385.4,112.8,3065.2,148.1,558.2,1465.6,2996.3,172,67.8
0.095358,509.0,66.9,1365.2,128.5,3063.9,173.5,546.3,1452.2,3001.8,172.2,68.1
0.097358,502.6,66.9,1350.9,170.4,3051.1,247.0,534.7,1439.4,3007.2,172.4,68.4
0.099358,499.0,72.7,1349.5,249.4,3005.8,372.6,523.3,1427,3012.2,172.5,68.7
0.101358,498.9,84.0,1368.0,376.3,2938.9,485.9,512.2,1415,3017,172.7,69
0.103358,500.3,96.8,1407.1,551.4,2899.8,557.1,501.3,1403.3,3021.4,172.8,69.2
0.105358,500.3,104.4,1450.8,721.8,2902.1,610.1,490.7,1391.7,3025.4,172.9,69.4
0.107358,497.2,105.7,1483.8,846.6,2936.8,647.7,480.5,1380.1,3028.8,173,69.5
0.109358,491.2,103.4,1479.8,875.8,2987.4,662.1,470.6,1368.5,3031.7,173,69.5
0.111358,483.8,101.7,1434.5,824.4,3032.8,679.0,461.1,1356.5,3033.8,173.1,69.5
0.113358,475.5,103.9,1369.4,739.3,3054.9,718.1,452,1344.1,3035.1,173.1,69.4
0.115358,465.8,108.6,1307.1,668.1,3046.8,759.6,443.4,1331.1,3035.6,173.1,69.2
0.117358,452.3,111.4,1250.8,622.2,3024.0,779.2,435.2,1317.4,3035.2,173.1,69
0.119358,435.3,110.5,1203.6,622.3,3009.4,774.1,427.5,1302.8,3033.8,173.1,68.9
0.121358,419.5,106.7,1168.3,677.8,3000.0,797.2,420.4,1287.3,3031.4,173.1,68.9
0.123358,406.3,100.5,1149.5,770.2,2980.3,800.5,413.7,1270.7,3027.9,173,68.9
0.125358,398.0,95.2,1182.7,901.9,3003.9,638.5,407.6,1253,3023.5,173,69
0.127358,392.6,89.5,1274.7,1040.2,3014.0,471.4,402,1234.2,3018.1,172.9,69.2
0.129358,388.6,83.4,1393.6,1115.2,3013.9,376.3,397,1214.3,3011.7,172.9,69.3
0.131358,386.1,79.5,1462.1,1146.3,3014.3,337.6,392.5,1193.2,3004.4,172.9,69.5
0.133358,384.4,77.6,1440.9,1211.7,3017.1,338.1,388.4,1171.2,2996.4,172.8,69.7
0.135358,382.7,77.5,1297.7,1257.0,3020.7,378.5,384.9,1148.1,2987.8,172.8,69.8
0.137358,381.3,79.4,1130.9,1155.3,3023.2,443.2,381.8,1124.2,2978.6,172.7,70
0.139358,379.5,81.2,1017.2,984.3,3026.6,511.8,379.1,1099.6,2969.1,172.7,70.1
0.141358,376.4,79.5,959.3,798.9,3027.3,586.9,376.8,1074.5,2959.4,172.7,70.3
0.143358,373.3,75.4,940.6,671.6,3006.9,673.6,374.9,1049,2949.6,172.7,70.4
0.145358,371.5,71.9,930.9,605.1,2950.1,755.0,373.3,1023.3,2940,172.7,70.5
0.147358,370.6,70.6,916.1,577.6,2887.7,788.4,372,997.6,2930.8,172.7,70.6
0.149358,369.8,71.0,895.0,564.9,2861.5,794.8,370.9,972.2,2922,172.7,70.6
0.151358,369.1,72.1,872.0,566.3,2892.8,788.4,370,947.3,2913.8,172.7,70.7
0.153358,368.8,73.1,850.4,580.3,2954.9,745.3,369.2,922.9,2906.5,172.8,70.8
0.155358,368.8,74.2,829.1,594.5,3002.2,666.9,368.5,899.4,2900.1,172.8,70.9
0.157358,368.8,75.0,812.1,592.0,3013.3,600.3,367.9,876.9,2894.7,172.9,70.9
0.159358,368.6,75.0,806.8,568.3,2995.6,589.1,367.3,855.5,2890.5,172.9,71
0.161358,367.9,74.2,812.5,533.0,2956.3,645.4,366.8,835.4,2887.4,173,71
0.163358,366.9,72.8,822.6,495.7,2892.4,749.6,366.2,816.6,2885.5,173.1,71.1
0.165358,365.4,70.5,831.4,451.0,2807.9,825.9,365.6,799.3,2884.7,173.2,71.1
0.167358,363.7,68.3,837.2,406.5,2755.8,826.7,365,783.6,2885.2,173.3,71.2
0.169358,362.5,67.3,839.0,376.4,2758.4,798.3,364.3,769.3,2886.7,173.4,71.2
0.171358,361.7,67.2,835.9,357.4,2783.9,774.4,363.5,756.6,2889.2,173.5,71.2
0.173358,361.3,68.3,827.7,352.3,2805.8,781.7,362.7,745.4,2892.5,173.6,71.2
0.175358,362.0,72.0,817.4,376.0,2808.1,850.6,361.9,735.6,2896.7,173.7,71.2
0.177358,363.8,79.0,805.2,437.3,2791.3,982.0,361,727.2,2901.4,173.8,71.2
0.179358,366.1,87.8,788.9,526.0,2780.0,1130.6,360.1,720,2906.5,173.9,71.1
0.181358,367.5,95.0,773.9,597.2,2827.2,1223.3,359.2,714,2911.8,174,71
0.183358,366.5,100.7,768.1,621.5,2956.8,1194.6,358.3,709.1,2917.2,174.1,70.9
0.185358,363.2,106.8,768.9,601.1,3070.0,919.6,357.5,705.1,2922.5,174.1,70.7
0.187358,359.1,115.6,766.9,565.3,3049.8,661.0,356.7,701.9,2927.5,174.2,70.5
0.189358,355.1,127.6,759.8,532.9,3016.3,524.0,356,699.4,2932,174.3,70.3
0.191358,353.2,143.7,747.7,531.9,2989.7,466.2,355.4,697.5,2935.9,174.3,69.9
0.193358,357.7,170.1,720.2,601.6,2965.6,475.1,354.9,696.2,2939.1,174.4,69.5
0.195358,377.8,206.1,643.3,821.7,2947.0,550.8,354.6,695.3,2941.5,174.4,69
0.197358,404.1,207.4,475.8,1274.1,2945.8,678.6,354.4,694.7,2942.9,174.4,68.4
0.199358,258.4,1799.3,405.0,199.4,2967.0,813.3,354.3,694.6,2943.4,174.4,67.7
