time,f1,b1,f2,b2,f3,b3,f1p,f2p,f3p,f0,intensity
0.025694,390.5,174.3,930.5,378.0,2961.4,288.4,419.5,956.5,2987.1,184.3,69.9
0.027694,401.2,178.6,937.3,381.8,2969.4,246.5,420.2,954.7,2985.4,183.8,70.6
0.029694,412.7,187.5,932.1,407.3,2961.3,234.4,421.4,951.8,2982.6,183.2,71.1
0.031694,423.2,194.8,919.8,435.0,2950.5,230.4,423,947.8,2979,182.7,71.5
0.033694,429.8,194.5,908.1,447.2,2946.6,220.6,425,942.7,2974.6,182.1,71.7
0.035694,432.9,188.9,902.7,444.5,2953.2,199.9,427.3,936.8,2969.6,181.4,71.9
0.037694,435.0,183.8,902.6,435.4,2965.1,175.2,429.8,930,2964.5,180.8,72
0.039694,437.2,181.4,900.3,426.1,2972.4,160.3,432.5,922.6,2959.4,180.1,72.1
0.041694,440.3,181.9,896.5,423.4,2971.2,160.2,435.3,914.6,2954.6,179.4,72.1
0.043694,445.7,182.8,899.3,430.3,2963.7,169.1,438,906.2,2950.4,178.7,72.2
0.045694,452.3,181.1,910.1,440.9,2952.7,182.3,440.7,897.5,2947.2,177.9,72.2
0.047694,456.7,175.2,919.5,440.4,2940.1,200.5,443.1,888.7,2945.2,177.2,72.2
0.049694,456.7,166.1,918.0,423.5,2929.9,223.7,445.1,880,2944.6,176.4,72.2
0.051694,453.9,156.0,909.7,400.7,2929.3,246.4,446.8,871.4,2945.7,175.6,72.2
0.053694,451.3,147.2,903.9,383.5,2942.3,260.6,448,863.1,2948.5,174.8,72.2
0.055694,450.0,140.4,904.6,372.5,2967.5,257.6,448.7,855.2,2953.3,174,72.1
0.057694,449.7,134.7,910.6,360.4,3003.6,230.6,448.7,847.8,2960.1,173.2,72.1
0.059694,449.4,129.8,915.3,343.2,3036.6,193.1,448.1,841,2968.8,172.4,72
0.061694,447.1,124.7,911.3,325.6,3057.3,169.1,446.8,834.9,2979.4,171.6,71.9
0.063694,442.8,119.1,898.4,317.1,3066.8,174.2,444.8,829.5,2991.6,170.8,71.8
0.065694,438.1,113.3,880.7,322.7,3071.1,215.4,442,824.9,3005.4,170,71.8
0.067694,433.7,108.4,856.0,340.8,3071.7,300.5,438.6,820.9,3020.4,169.2,71.7
0.069694,429.3,105.8,818.6,358.0,3064.8,430.3,434.5,817.7,3036.2,168.4,71.6
0.071694,424.8,106.6,776.1,359.1,3048.1,584.9,429.7,815.2,3052.7,167.6,71.5
0.073694,420.8,108.8,747.9,351.4,3030.1,694.8,424.4,813.3,3069.2,166.9,71.4
0.075694,418.3,109.6,742.9,351.0,3037.4,646.5,418.6,811.9,3085.4,166.2,71.2
0.077694,415.9,107.9,751.8,352.8,3050.4,515.4,412.4,811,3100.9,165.4,71.1
0.079694,411.4,104.0,759.4,341.5,3061.5,420.1,405.8,810.5,3115.1,164.8,70.9
0.081694,403.7,99.1,758.4,312.5,3076.9,367.1,399.1,810.2,3127.8,164.1,70.8
0.083694,393.3,94.0,754.1,272.7,3099.7,334.2,392.2,810.1,3138.4,163.4,70.6
0.085694,382.0,89.1,755.0,235.7,3124.7,307.9,385.4,809.9,3146.6,162.8,70.4
0.087694,371.5,85.6,763.8,212.4,3140.4,306.8,378.6,809.7,3152,162.2,70.1
0.089694,361.7,84.5,777.9,203.0,3144.4,360.0,372.1,809.2,3154.4,161.6,69.9
0.091694,353.2,85.2,792.2,202.8,3137.9,482.5,366,808.4,3153.6,161,69.6
0.093694,347.3,88.5,801.3,209.2,3103.6,628.9,360.2,807.2,3149.4,160.5,69.4
0.095694,344.7,96.5,803.7,224.1,3064.2,624.6,355.1,805.4,3141.8,160,69.2
0.097694,345.3,105.8,802.9,242.2,3051.7,536.1,350.5,803,3130.8,159.5,69
0.099694,346.7,111.0,803.6,251.2,3045.4,474.6,346.6,800,3116.4,159,68.9
0.101694,347.0,111.7,806.1,245.6,3053.2,456.6,343.5,796.3,3099,158.6,68.7
0.103694,346.1,111.4,808.2,235.5,3080.0,447.2,341.2,791.9,3078.6,158.2,68.6
0.105694,345.5,110.9,808.7,228.2,3103.8,429.8,339.7,786.7,3055.5,157.8,68.4
0.107694,345.8,109.3,806.8,221.4,3107.0,435.2,339.1,781,3030.3,157.4,68.2
0.109694,347.2,107.1,802.4,214.1,3085.7,472.6,339.3,774.6,3003.2,157.1,68
0.111694,349.8,106.2,795.4,210.0,3046.2,528.8,340.3,767.6,2974.8,156.8,67.7
0.113694,352.9,110.1,787.0,213.5,3006.5,584.1,342,760.2,2945.5,156.5,67.4
0.115694,356.0,120.3,778.5,225.9,2989.4,627.3,344.6,752.5,2915.8,156.2,67.1
0.117694,359.0,132.4,771.5,242.6,2987.2,669.8,347.7,744.6,2886.2,155.9,66.8
0.119694,361.1,140.5,766.1,254.5,2953.4,733.3,351.5,736.6,2857.2,155.7,66.5
0.121694,361.8,146.3,760.1,261.8,2874.9,768.3,355.7,728.7,2829.2,155.5,66.1
0.123694,361.7,154.8,752.2,277.3,2813.0,750.0,360.3,721,2802.7,155.3,65.8
0.125694,362.4,165.1,742.8,309.9,2786.5,716.7,365.2,713.8,2778,155.1,65.6
0.127694,364.4,172.0,733.1,355.9,2768.4,682.2,370.3,707.2,2755.5,155,65.3
0.129694,366.8,170.7,725.1,404.6,2740.2,663.2,375.4,701.3,2735.3,154.8,65.2
0.131694,368.5,161.3,720.9,454.4,2703.8,678.0,380.5,696.4,2717.7,154.7,65
0.133694,371.1,151.3,717.8,527.1,2662.9,743.1,385.4,692.5,2702.8,154.6,64.9
0.135694,377.5,146.1,705.6,661.9,2599.9,868.1,389.9,689.9,2690.6,154.5,64.8
0.137694,387.8,144.7,676.8,845.9,2515.3,996.4,394.1,688.7,2681,154.5,64.7
0.139694,400.5,146.7,638.2,1034.7,2470.0,1132.1,397.8,689,2674,154.4,64.7
0.141694,412.6,154.3,616.9,1176.8,2586.4,1377.4,400.8,690.9,2669.3,154.4,64.6
0.143694,418.6,164.3,644.8,1209.4,2833.2,669.0,403.2,694.5,2666.8,154.4,64.6
0.145694,414.1,169.0,701.6,1083.7,2764.6,501.9,404.9,699.8,2666,154.4,64.5
0.147694,403.4,165.0,739.2,927.0,2731.0,458.3,405.7,706.9,2666.7,154.4,64.5
0.149694,393.7,159.0,752.8,844.7,2703.4,506.3,405.7,715.7,2668.6,154.4,64.4
0.151694,389.0,156.5,749.8,864.6,2661.4,670.2,404.8,726.4,2671.1,154.4,64.3
0.153694,390.3,155.2,734.5,995.9,2563.8,861.6,403,738.7,2674,154.5,64.1
0.155694,395.6,153.7,701.2,1245.9,2498.5,971.2,400.3,752.7,2676.8,154.5,64
0.157694,399.7,154.1,635.2,1613.0,2519.2,1120.5,396.7,768.3,2679.1,154.6,63.8
0.159694,397.4,157.1,574.4,1922.2,2649.9,1256.0,392.4,785.3,2680.7,154.7,63.8
0.161694,388.3,162.6,645.9,1765.2,2766.6,1049.6,387.2,803.6,2681.2,154.8,63.9
0.163694,376.6,169.5,709.1,1463.7,2712.1,885.0,381.3,823.1,2680.4,154.9,64
0.165694,366.6,174.5,733.8,1282.1,2656.2,842.0,374.7,843.6,2678.1,155,64.2
0.167694,360.3,175.9,744.7,1216.0,2640.2,873.9,367.5,864.8,2674.1,155.1,64.3
0.169694,356.0,174.6,761.7,1254.2,2680.2,1023.6,359.9,886.7,2668.4,155.2,64.5
0.171694,352.0,170.3,807.6,1430.2,2845.6,1670.9,351.8,908.9,2660.9,155.3,64.5
0.173694,348.4,163.5,964.3,1882.1,2582.3,4002.3,343.5,931.2,2651.8,155.4,64.5
0.175694,344.5,157.1,1373.3,1833.8,2909.3,496.3,335,953.5,2641.2,155.5,64.4
0.177694,339.0,149.8,1461.2,1703.0,2876.8,514.1,326.5,975.5,2629.3,155.7,64.3
0.179694,333.2,140.5,1539.1,1822.3,2857.8,572.9,318,997,2616.2,155.8,64.3
0.181694,327.5,132.0,1741.6,2204.3,2883.9,672.0,309.6,1017.7,2602.4,156,64.2
0.183694,319.2,124.8,739.1,2598.4,2355.2,1715.3,301.6,1037.4,2588.1,156.1,64.2
0.185694,308.0,115.6,864.9,1844.2,2359.1,1075.4,294,1056,2573.6,156.3,64.1
0.187694,296.5,103.7,952.8,1475.1,2369.7,802.2,286.8,1073.1,2559.4,156.4,64.1
0.189694,286.2,91.6,1028.5,1254.4,2402.2,644.9,280.2,1088.8,2545.8,156.6,64
0.191694,277.4,81.8,1091.0,1128.3,2433.7,566.5,274.4,1102.6,2533.2,156.7,63.9
0.193694,270.0,77.0,1142.3,1119.2,2464.6,566.1,269.2,1114.7,2521.9,156.9,63.7
0.195694,262.1,78.8,1177.7,1238.6,2499.5,586.1,265,1124.7,2512.2,157,63.4
0.197694,252.9,89.9,1156.9,1430.7,2521.2,526.7,261.6,1132.6,2504.3,157.2,63
0.199694,244.6,118.0,1057.1,1587.5,2526.6,409.8,259.1,1138.3,2498.5,157.3,62.6
0.201694,238.1,175.5,928.2,1674.5,2530.0,324.6,257.6,1141.7,2495,157.5,62
0.203694,232.1,274.0,777.7,1867.4,2533.6,302.4,257.1,1142.9,2493.8,157.6,61.2
