time,f1,b1,f2,b2,f3,b3,f1p,f2p,f3p,f0,intensity
0.025122,894.1,325.3,1664.4,165.0,2687.5,639.1,856.2,1609.8,2648.5,155.4,62.4
0.027122,866.4,272.9,1649.6,168.2,2672.1,723.3,853.7,1609.4,2648,155.3,63.5
0.029122,848.2,233.0,1629.3,181.0,2622.6,846.1,849.5,1608.7,2647.4,155.2,64.4
0.031122,837.2,205.9,1608.2,196.6,2561.6,939.2,843.9,1607.5,2646.8,155.1,65.1
0.033122,828.8,183.2,1590.6,207.7,2544.6,945.2,836.7,1605.6,2646.6,155,65.6
0.035122,818.6,159.1,1575.9,214.9,2586.3,853.2,828.3,1602.9,2647,154.8,66
0.037122,806.8,135.2,1563.7,223.1,2646.2,694.2,818.7,1599.1,2648.4,154.7,66.2
0.039122,795.6,116.2,1556.7,232.5,2688.8,532.7,808.1,1594,2651.1,154.6,66.3
0.041122,783.8,103.4,1555.5,242.9,2710.4,408.9,796.7,1587.4,2655.3,154.6,66.3
0.043122,770.9,93.7,1558.5,254.2,2720.8,331.7,784.6,1579.4,2661.3,154.5,66.2
0.045122,760.0,83.3,1563.3,258.7,2728.7,290.0,771.9,1569.8,2669,154.4,66.1
0.047122,752.7,72.9,1564.8,252.9,2735.9,268.9,758.7,1558.7,2678.5,154.4,65.8
0.049122,747.0,66.2,1559.4,248.2,2742.0,262.3,745.2,1546.1,2689.6,154.4,65.5
0.051122,741.4,65.5,1548.6,255.0,2747.7,268.0,731.5,1532.2,2701.9,154.4,65.1
0.053122,734.8,70.9,1534.4,269.0,2750.7,281.7,717.5,1517.2,2714.9,154.4,64.7
0.055122,724.8,81.2,1512.7,277.6,2742.2,308.8,703.3,1501.4,2728.2,154.5,64.3
0.057122,708.1,94.4,1482.2,274.5,2724.4,349.0,689,1484.9,2741,154.6,63.9
0.059122,684.7,106.2,1451.5,262.9,2716.7,371.7,674.5,1468.1,2752.6,154.7,63.6
0.061122,657.0,112.8,1426.1,251.0,2723.1,357.3,659.8,1450.9,2762.2,154.8,63.5
0.063122,629.9,110.9,1407.3,243.8,2724.1,322.3,644.8,1433.5,2769,155,63.4
0.065122,611.2,100.9,1398.0,242.6,2713.8,293.1,629.6,1416,2772.4,155.2,63.4
0.067122,600.7,88.4,1396.9,251.5,2702.5,287.0,614.1,1398.2,2771.6,155.4,63.4
0.069122,593.0,79.2,1397.4,277.9,2699.5,316.9,598.3,1379.8,2766.3,155.6,63.4
0.071122,585.6,76.8,1393.7,327.3,2709.5,383.9,582.2,1360.6,2755.9,155.9,63.3
0.073122,577.4,81.8,1383.9,396.9,2725.5,466.5,565.8,1340.2,2740.3,156.1,63.3
0.075122,565.5,93.4,1366.0,474.9,2730.8,546.0,549.2,1318.1,2719.6,156.4,63.2
0.077122,546.1,106.6,1340.4,537.0,2717.5,621.5,532.5,1293.7,2693.9,156.7,63.2
0.079122,520.1,112.3,1312.8,572.3,2685.8,686.6,515.8,1266.7,2663.7,157,63.2
0.081122,493.8,110.2,1279.3,610.5,2639.6,715.7,499.2,1236.4,2629.6,157.4,63.2
0.083122,471.2,105.9,1224.0,663.4,2595.0,690.5,482.8,1202.6,2592.3,157.7,63.4
0.085122,452.4,101.0,1141.7,703.3,2577.0,654.4,466.8,1165.1,2552.8,158,63.5
0.087122,436.7,94.1,1051.1,693.0,2590.1,683.0,451.4,1123.8,2512.2,158.3,63.7
0.089122,425.7,87.4,986.2,641.0,2616.9,820.7,436.7,1078.9,2471.4,158.6,64
0.091122,418.4,85.6,934.9,586.9,2577.5,1108.1,422.9,1031,2431.7,159,64.2
0.093122,411.5,88.7,880.0,525.8,2331.4,1198.8,410.2,980.7,2394.1,159.3,64.3
0.095122,404.3,92.9,843.6,471.5,2212.1,961.0,398.7,929,2359.7,159.5,64.5
0.097122,397.6,96.5,830.6,442.2,2220.6,881.6,388.6,877.3,2329.3,159.8,64.6
0.099122,390.5,99.5,830.8,423.1,2295.7,959.3,379.9,826.9,2303.9,160.1,64.7
0.101122,382.7,101.0,832.3,412.3,2416.2,1067.3,372.6,779.5,2284,160.3,64.8
0.103122,375.0,100.0,823.9,421.4,2471.1,1098.1,366.8,736.9,2270.1,160.6,64.8
0.105122,367.9,98.3,800.0,453.0,2362.2,1086.8,362.6,700.8,2262.3,160.8,64.8
0.107122,362.5,97.5,766.6,491.3,2210.4,938.2,359.7,672.9,2260.9,161,64.8
0.109122,359.1,96.6,738.4,518.4,2121.9,780.1,358.3,654.8,2265.6,161.1,64.8
0.111122,356.7,95.5,725.7,533.1,2091.8,695.9,358.1,647.9,2276.2,161.3,64.8
0.113122,354.8,95.2,725.4,541.8,2097.7,682.2,359,653.3,2292.1,161.4,64.8
0.115122,354.9,97.0,729.0,565.8,2132.3,742.2,360.9,671.5,2312.8,161.5,64.7
0.117122,357.4,101.3,732.5,609.5,2215.1,877.9,363.7,702.9,2337.5,161.6,64.5
0.119122,360.2,106.2,732.4,637.8,2374.2,964.4,367.1,747.1,2365.4,161.7,64.3
0.121122,362.3,109.9,718.0,638.2,2499.2,813.3,371.1,803.4,2395.8,161.8,64.1
0.123122,365.7,114.8,685.8,664.9,2516.4,657.7,375.3,870.5,2427.7,161.8,63.8
0.125122,373.7,121.6,638.0,794.6,2521.5,609.6,379.8,946.8,2460.4,161.8,63.5
0.127122,386.7,121.8,557.9,1215.6,2582.6,646.3,384.3,1030,2492.9,161.9,63.2
0.129122,398.8,112.7,1342.3,1859.2,2698.5,554.3,388.7,1117.7,2524.6,161.9,62.9
0.131122,406.3,101.3,1479.4,1110.1,2733.7,409.0,392.9,1207.1,2554.8,161.9,62.7
0.133122,408.0,91.3,1513.9,838.7,2728.7,338.4,396.8,1295.2,2582.8,161.9,62.3
0.135122,406.1,86.1,1532.5,757.3,2710.6,318.8,400.3,1379.1,2608.1,161.9,62
0.137122,403.4,88.8,1527.0,809.2,2687.7,326.7,403.4,1455.9,2630.2,161.8,61.5
0.139122,401.3,98.3,1479.5,946.2,2662.9,345.4,405.9,1522.9,2648.8,161.8,61
0.141122,400.3,110.5,1406.2,1097.0,2639.2,376.8,408,1577.6,2663.5,161.8,60.4
0.143122,401.9,126.8,1364.7,1317.3,2609.4,455.7,409.4,1618.2,2674.2,161.7,59.7
0.145122,407.7,149.5,1460.0,1798.7,2547.6,635.9,410.3,1643.2,2680.7,161.7,58.9
0.147122,417.2,171.3,2073.0,2151.5,2374.3,1014.8,410.6,1651.6,2682.9,161.7,58
