time,f1,b1,f2,b2,f3,b3,f1p,f2p,f3p,f0,intensity
0.025447,370.9,79.4,1283.2,255.4,2866.1,235.7,419,1208.9,2923.9,160,73
0.027447,397.1,80.9,1227.8,266.9,2907.7,193.5,419.9,1201.7,2923.6,159.5,73.2
0.029447,423.2,78.2,1185.8,286.1,2925.4,197.5,421.4,1189.9,2923,159,73.5
0.031447,441.3,68.9,1153.7,288.6,2934.4,235.4,423.5,1173.8,2922.2,158.5,73.8
0.033447,449.8,58.4,1126.3,271.2,2943.5,305.8,426,1154.1,2921.2,157.9,74.1
0.035447,452.6,50.0,1097.9,245.4,2955.1,448.3,428.9,1131.1,2920.1,157.3,74.3
0.037447,452.6,45.8,1072.0,224.5,2937.1,650.9,432.2,1105.7,2918.9,156.7,74.4
0.039447,451.7,45.5,1052.6,214.1,2935.8,759.5,435.6,1078.6,2917.6,156,74.3
0.041447,448.9,48.5,1036.2,210.0,2958.2,740.2,439.2,1050.6,2916.3,155.3,74.1
0.043447,443.2,54.9,1021.5,208.5,2947.8,609.9,442.7,1022.4,2915.1,154.6,73.7
0.045447,436.4,66.0,1009.3,210.7,2917.4,501.9,446.2,994.9,2913.8,153.9,73.1
0.047447,432.4,82.6,997.5,221.7,2890.1,445.4,449.4,968.9,2912.7,153.1,72.5
0.049447,432.2,105.1,982.1,249.1,2870.9,420.7,452.4,945.1,2911.6,152.3,71.8
0.051447,435.7,126.4,966.9,300.4,2870.5,412.2,454.9,924.1,2910.6,151.5,71.2
0.053447,443.1,139.5,954.4,389.2,2879.9,400.5,456.9,906.3,2909.7,150.7,70.6
0.055447,453.5,144.4,938.3,538.9,2880.2,388.2,458.4,892.4,2908.8,149.9,70
0.057447,467.0,142.7,898.6,809.8,2876.1,389.7,459.2,882.5,2907.9,149,69.4
0.059447,478.8,134.2,822.8,1152.9,2883.0,401.4,459.4,876.8,2906.9,148.2,68.8
0.061447,483.6,132.6,764.3,1309.8,2904.6,397.2,458.9,875.3,2905.8,147.4,68.3
0.063447,481.3,146.5,776.8,1179.8,2938.6,375.1,457.6,878,2904.6,146.6,67.8
0.065447,469.9,168.3,817.8,958.3,2971.9,353.0,455.7,884.8,2903.1,145.7,67.3
0.067447,452.5,176.8,861.4,813.6,2972.2,361.1,453,895.2,2901.4,144.9,66.9
0.069447,437.1,168.2,900.7,739.4,2928.8,391.4,449.7,908.9,2899.3,144.1,66.7
0.071447,426.4,152.3,935.0,683.8,2868.3,402.7,445.8,925.4,2896.9,143.2,66.5
0.073447,422.9,139.9,965.7,655.3,2831.6,410.6,441.3,944.2,2894,142.4,66.4
0.075447,423.2,132.6,1002.5,642.5,2819.8,448.1,436.4,964.9,2890.8,141.5,66.3
0.077447,422.3,128.1,1041.7,618.8,2830.2,508.8,431,986.9,2887.1,140.7,66.2
0.079447,419.8,125.4,1074.7,589.3,2870.0,569.1,425.2,1009.5,2883,139.8,66.1
0.081447,417.8,126.0,1094.6,585.1,2926.2,590.6,419.3,1032.5,2878.5,138.9,66
0.083447,415.8,131.8,1107.1,616.3,2954.7,579.9,413.1,1055.3,2873.8,137.9,66.1
0.085447,412.0,139.2,1117.7,652.3,2930.7,578.6,406.8,1077.7,2868.9,136.9,66.1
0.087447,407.2,146.3,1129.0,682.8,2873.6,601.6,400.4,1099.2,2863.9,135.9,66.2
0.089447,403.1,155.2,1143.2,737.0,2832.4,687.1,394.1,1119.9,2858.9,134.8,66.2
0.091447,398.8,162.9,1160.7,803.9,2815.4,887.8,387.9,1139.5,2854.2,133.6,66.2
0.093447,393.8,161.9,1178.2,825.9,2814.8,1042.8,381.8,1158.2,2849.7,132.3,66.2
0.095447,386.9,149.7,1182.3,761.2,2887.3,968.7,375.9,1176,2845.8,131,66
0.097447,376.4,128.5,1161.1,619.6,2906.2,689.8,370.2,1193.2,2842.5,129.6,65.9
0.099447,362.1,102.7,1130.7,461.3,2881.7,465.6,364.7,1210,2839.9,128,65.6
0.101447,350.0,82.2,1117.1,355.4,2860.1,342.2,359.5,1226.7,2838.3,126.4,65.3
0.103447,343.1,72.7,1128.6,322.1,2842.7,310.8,354.5,1243.8,2837.7,124.6,65.1
0.105447,340.2,72.2,1157.9,364.0,2830.0,347.7,349.7,1261.7,2838.2,122.7,64.9
0.107447,338.0,73.1,1195.2,474.2,2819.5,403.0,345.2,1280.7,2839.9,120.8,64.7
0.109447,335.8,72.3,1244.9,672.7,2809.0,444.8,340.9,1301.3,2842.8,118.7,64.5
0.111447,334.5,70.3,1309.4,935.7,2800.4,469.8,336.8,1323.7,2846.8,116.5,64.4
0.113447,334.5,67.7,1375.5,1170.5,2792.7,490.9,332.9,1348.3,2851.9,114.2,64.3
0.115447,334.8,64.3,1425.9,1288.1,2785.7,522.1,329.2,1375.4,2858.1,111.9,64.1
0.117447,333.3,59.9,1488.8,1270.2,2787.7,591.0,325.6,1405,2865.1,109.4,63.9
0.119447,328.7,55.3,1573.2,1119.4,2818.6,696.5,322.1,1437.3,2872.8,107,63.7
0.121447,321.2,51.0,1632.9,930.5,2882.1,749.6,318.7,1472.2,2881.1,104.4,63.5
0.123447,314.2,47.9,1646.6,809.2,2933.2,673.0,315.5,1509.6,2889.6,101.9,63.2
0.125447,309.0,45.7,1632.0,717.4,2952.5,514.5,312.3,1549.2,2898.1,99.4,63
0.127447,305.5,43.1,1611.5,612.4,2953.3,370.8,309.1,1590.8,2906.3,96.8,62.8
0.129447,303.2,39.6,1596.5,528.3,2946.5,285.7,306.1,1633.8,2914,94.3,62.7
0.131447,301.8,37.7,1589.6,510.2,2938.6,249.4,303.1,1678,2920.8,91.9,62.5
0.133447,299.8,39.8,1606.4,573.3,2937.2,251.5,300.2,1722.7,2926.6,89.5,62.4
0.135447,296.0,44.3,1681.8,692.4,2948.8,310.2,297.4,1767.4,2931,87.2,62.3
0.137447,291.8,45.4,1815.6,723.7,2987.1,421.1,294.7,1811.6,2933.8,85,62.3
0.139447,289.8,42.7,1894.9,611.8,3035.4,495.3,292.1,1854.7,2934.9,82.9,62.2
0.141447,291.1,40.5,1898.1,518.6,3030.7,501.8,289.6,1896.1,2934.1,80.9,62.1
0.143447,294.1,39.9,1877.6,501.7,2967.8,448.3,287.2,1935.3,2931.2,79.1,62
0.145447,295.4,40.5,1874.2,540.4,2908.1,374.1,285.1,1972,2926.4,77.3,61.7
0.147447,292.7,42.5,1907.4,604.3,2868.7,315.8,283,2005.7,2919.5,75.7,61.2
0.149447,285.8,47.0,1969.1,625.4,2848.4,269.9,281.2,2036.3,2910.7,74.3,60.7
0.151447,275.8,58.5,2024.7,600.2,2838.1,230.8,279.5,2063.4,2900,72.9,60
0.153447,266.0,86.3,2068.7,622.5,2831.3,220.3,278,2087,2887.8,71.7,59.2
0.155447,262.2,141.7,2136.7,759.0,2824.9,255.6,276.7,2107,2874.2,70.6,58.5
0.157447,269.7,195.4,2253.5,974.5,2814.3,330.8,275.5,2123.7,2859.5,69.6,58.1
0.159447,278.9,204.5,2378.0,1233.2,2795.4,397.2,274.5,2137.2,2844,68.8,58
0.161447,279.7,177.2,2413.8,1623.7,2789.5,407.2,273.7,2147.6,2828.1,68,58.3
0.163447,275.3,132.7,2194.4,1930.5,2802.6,384.8,273.1,2155.4,2812.2,67.3,58.6
0.165447,271.4,88.6,2034.7,1621.1,2802.6,335.1,272.5,2160.9,2796.6,0,58.9
0.167447,270.1,58.1,2045.0,1218.1,2787.5,270.1,272.1,2164.5,2781.8,0,58.9
0.169447,270.4,44.8,2084.6,871.8,2777.4,213.1,271.8,2166.6,2768.1,0,58.7
0.171447,272.1,47.5,2102.0,654.9,2768.2,170.5,271.5,2167.5,2755.8,0,58.1
0.173447,276.3,73.5,2100.7,595.5,2756.3,156.8,271.4,2167.8,2745.3,0,57.2
0.175447,283.3,139.7,2097.9,648.4,2744.5,171.6,271.3,2167.6,2736.8,0,56
0.177447,286.9,284.6,2115.6,807.3,2733.5,224.1,271.2,2167.2,2730.6,0,54.5
0.179447,265.5,486.4,2217.3,1004.8,2734.7,348.3,271.1,2166.9,2726.8,0,53.1
0.181447,249.4,557.3,2308.4,820.4,2824.9,532.2,271.1,2166.8,2725.6,0,52
