time,f1,b1,f2,b2,f3,b3,f1p,f2p,f3p,f0,intensity
0.025590,390.3,381.9,1142.2,144.4,2776.7,311.1,500.4,1123.6,2827.6,194.5,75.3
0.027590,436.3,478.0,1156.0,127.5,2792.7,331.1,511.2,1131.7,2826.8,194.4,75.1
0.029590,506.2,587.6,1168.4,116.8,2810.4,310.3,528.3,1144.6,2825.6,194.2,74.8
0.031590,579.1,658.4,1178.0,110.1,2824.4,281.4,550.3,1161.2,2824.1,194.1,74.6
0.033590,623.2,703.1,1184.6,106.9,2832.6,268.1,575.5,1180.3,2822.8,193.9,74.4
0.035590,644.7,746.0,1189.0,109.0,2835.7,272.3,601.9,1200.6,2821.9,193.8,74.3
0.037590,665.5,787.9,1193.6,118.7,2836.2,282.3,627.3,1220.4,2821.7,193.6,74.2
0.039590,698.4,822.9,1200.5,138.4,2838.8,285.2,649.8,1238.6,2822.6,193.4,74.1
0.041590,733.7,836.3,1211.5,167.9,2845.4,278.6,667.5,1254,2825,193.3,74
0.043590,747.0,817.8,1228.6,202.3,2854.0,268.4,678.9,1265.7,2829,193.1,74
0.045590,722.1,771.0,1248.8,225.4,2861.6,262.8,683.1,1273.5,2834.8,192.9,73.9
0.047590,675.2,698.7,1268.7,231.8,2868.3,264.9,679.6,1277.2,2842.5,192.7,73.8
0.049590,632.4,623.7,1284.8,228.0,2874.5,275.4,668.5,1277.3,2852,192.5,73.7
0.051590,601.0,572.0,1295.9,224.0,2880.2,292.4,650.5,1274.8,2863.3,192.3,73.7
0.053590,576.0,543.8,1300.9,224.9,2885.5,312.7,626.7,1270.7,2875.9,192.1,73.7
0.055590,553.3,525.6,1299.3,229.3,2891.1,331.5,598.9,1266.5,2889.6,191.9,73.6
0.057590,532.5,508.8,1293.3,233.1,2898.0,338.7,568.7,1263.6,2903.9,191.7,73.6
0.059590,513.7,491.1,1288.0,233.3,2905.9,322.8,538.4,1263.5,2918.2,191.5,73.6
0.061590,496.4,470.0,1287.6,227.8,2913.1,283.2,509.7,1267.3,2932,191.3,73.6
0.063590,482.9,448.2,1294.5,215.9,2917.9,240.2,484.7,1276,2944.7,191,73.6
0.065590,474.1,431.5,1307.6,197.0,2921.4,206.8,464.6,1289.9,2955.7,190.8,73.7
0.067590,470.9,424.9,1322.1,176.2,2924.2,187.4,450.6,1309,2964.5,190.6,73.7
0.069590,471.6,419.8,1333.1,162.6,2926.5,180.2,443.2,1332.8,2970.6,190.4,73.7
0.071590,471.4,397.8,1339.0,162.2,2928.9,179.6,442.4,1359.9,2973.7,190.2,73.7
0.073590,467.4,357.3,1341.0,179.7,2932.5,179.7,447.6,1388.8,2973.5,190,73.7
0.075590,462.6,318.6,1342.7,225.0,2938.0,177.3,457.7,1417.4,2969.8,189.8,73.7
0.077590,462.8,302.0,1353.6,310.6,2946.4,171.4,471.4,1443.5,2962.8,189.6,73.7
0.079590,473.6,309.8,1390.7,419.7,2957.7,162.6,486.8,1464.7,2952.4,189.4,73.7
0.081590,497.5,323.2,1451.9,477.1,2971.6,154.5,502.1,1478.8,2939.1,189.2,73.6
0.083590,521.5,320.4,1494.4,466.4,2986.3,152.8,515.5,1483.6,2923.2,189,73.6
0.085590,536.3,308.4,1517.4,445.3,3002.6,159.0,525.3,1477.8,2905.2,188.8,73.6
0.087590,542.7,299.4,1530.3,442.9,3019.9,172.9,530.1,1460.3,2885.7,188.6,73.5
0.089590,544.2,301.0,1534.8,475.6,3037.0,194.0,529.1,1430.8,2865.2,188.4,73.5
0.091590,541.7,318.7,1525.9,556.3,3050.4,220.0,521.9,1389.6,2844.5,188.2,73.5
0.093590,529.9,356.1,1492.2,703.4,3054.1,245.6,508.7,1338.2,2824.1,188,73.5
0.095590,497.6,405.2,1399.0,949.8,3045.6,267.9,490.2,1278.1,2804.7,187.8,73.5
0.097590,441.3,412.5,1090.9,1056.2,1727.6,4239.7,467.6,1212,2786.9,187.5,73.5
0.099590,398.0,365.9,967.8,695.7,2494.8,2365.8,442.7,1142.8,2771.1,187.3,73.5
0.101590,373.2,322.9,930.4,525.0,2672.0,1609.7,417.4,1073.5,2757.6,187.1,73.5
0.103590,359.1,300.9,906.0,451.2,2706.2,1195.9,393.7,1007.5,2746.9,186.9,73.5
0.105590,350.9,298.3,888.6,432.9,2723.5,1056.3,373.7,947.7,2739,186.7,73.5
0.107590,347.4,315.3,878.0,461.4,2919.5,1193.8,359.2,896.9,2733.9,186.5,73.4
0.109590,349.1,346.3,874.5,531.9,2861.6,486.8,351.8,857.3,2731.7,186.3,73.4
0.111590,355.0,375.0,877.0,629.0,2829.4,359.7,352.4,830.3,2732.1,186,73.4
0.113590,362.7,395.9,871.8,739.6,2814.1,288.7,361.6,816.6,2734.8,185.8,73.3
0.115590,379.8,436.7,824.5,916.1,2812.0,247.8,379.1,815.9,2739.6,185.6,73.3
0.117590,447.9,496.2,635.2,1463.7,2815.9,224.9,404.2,827.3,2745.9,185.4,73.2
0.119590,516.5,401.3,1025.2,2457.6,2814.8,212.0,435.6,849,2753.4,185.2,73.1
0.121590,537.6,346.2,1188.7,2651.9,2802.1,204.4,471.3,878.6,2761.4,184.9,73
0.123590,552.6,330.5,1151.8,2825.9,2782.9,199.7,509.2,913.2,2769.7,184.7,72.8
0.125590,567.3,331.4,985.9,3020.0,2766.7,203.8,546.9,949.7,2777.5,184.5,72.7
0.127590,582.0,327.7,768.4,3282.4,2758.5,227.2,581.9,984.9,2784.6,184.3,72.5
0.129590,593.1,3713.4,593.2,307.4,2755.6,277.8,611.8,1015.9,2790.6,184.1,72.4
0.131590,598.7,274.5,654.1,4281.9,2747.9,342.7,634.8,1040,2795.1,183.9,72.2
0.133590,599.8,243.1,1159.0,4116.5,2734.8,371.1,649.2,1055.3,2797.9,183.7,72.1
0.135590,597.4,223.3,1488.5,3058.7,2741.1,331.0,654.2,1060.5,2798.8,183.5,71.9
