time,f1,b1,f2,b2,f3,b3,f1p,f2p,f3p,f0,intensity
0.025374,407.6,213.8,895.3,408.1,2686.1,555.0,394.4,855.1,2657.7,161.5,66
0.027374,401.3,168.4,908.8,286.4,2694.5,487.7,394.6,863.5,2661.5,161.4,66.5
0.029374,399.2,143.0,917.7,220.5,2663.4,431.3,394.8,877.1,2667.6,161.3,66.9
0.031374,396.6,130.6,922.8,184.0,2637.3,369.3,395.1,895.5,2675.9,161.2,67.3
0.033374,393.8,127.2,925.3,167.1,2635.8,306.1,395.6,918,2686.1,161.1,67.6
0.035374,392.0,129.1,928.1,163.2,2651.8,259.9,396.1,943.9,2697.8,160.9,67.9
0.037374,391.8,132.5,936.2,166.3,2676.7,244.6,396.8,972.4,2710.7,160.8,68.1
0.039374,392.6,136.2,956.9,174.6,2715.9,266.5,397.6,1002.6,2724.3,160.7,68.4
0.041374,393.9,139.6,992.1,184.2,2768.7,312.0,398.6,1033.4,2738.2,160.5,68.6
0.043374,395.2,143.5,1039.0,186.8,2816.1,344.6,399.7,1064.2,2752.1,160.3,68.7
0.045374,396.2,148.9,1086.1,176.8,2827.3,342.6,401,1093.8,2765.4,160.1,68.9
0.047374,397.3,156.8,1122.8,160.0,2812.0,314.9,402.4,1121.8,2777.9,160,69
0.049374,399.1,169.5,1146.3,146.9,2798.0,282.1,404,1147.3,2789.1,159.8,69.1
0.051374,402.1,188.9,1161.3,142.1,2793.2,263.5,405.8,1170,2798.9,159.6,69.2
0.053374,405.9,212.9,1172.9,142.7,2793.6,268.5,407.7,1189.5,2807,159.4,69.3
0.055374,409.5,233.3,1182.7,143.4,2795.9,296.4,409.6,1205.6,2813.4,159.1,69.3
0.057374,412.4,245.8,1191.8,144.9,2800.2,333.0,411.7,1218.5,2817.9,158.9,69.4
0.059374,415.3,255.0,1202.9,153.2,2809.3,352.8,413.9,1228.2,2820.7,158.7,69.5
0.061374,419.3,261.2,1218.0,169.8,2820.9,344.6,416,1235.1,2821.8,158.5,69.5
0.063374,424.2,258.1,1236.2,185.1,2825.3,323.1,418.2,1239.7,2821.4,158.2,69.6
0.065374,428.4,243.8,1255.0,187.5,2817.4,304.3,420.3,1242.4,2819.8,158,69.7
0.067374,430.4,221.7,1269.3,175.0,2803.2,296.9,422.3,1243.9,2817.2,157.8,69.8
0.069374,430.1,197.0,1275.6,152.6,2791.7,310.2,424.2,1244.7,2813.8,157.5,69.9
0.071374,428.7,175.5,1277.3,128.1,2785.5,346.9,425.9,1245.4,2810.2,157.3,69.9
0.073374,427.4,159.9,1279.1,109.4,2786.7,397.0,427.5,1246.5,2806.4,157.1,70
0.075374,427.2,148.0,1281.2,99.2,2796.1,440.6,428.8,1248.6,2803,156.8,70
0.077374,427.8,137.8,1282.4,95.5,2810.1,453.5,429.9,1251.8,2800,156.6,70
0.079374,428.7,131.6,1283.3,96.8,2821.7,432.0,430.8,1256.5,2797.8,156.4,70
0.081374,429.7,128.2,1284.9,101.3,2827.3,406.3,431.3,1262.6,2796.6,156.1,70
0.083374,430.3,124.9,1286.0,108.8,2823.7,407.8,431.6,1270.1,2796.4,155.9,70
0.085374,429.7,120.4,1286.3,120.6,2809.6,441.2,431.6,1278.7,2797.4,155.6,70
0.087374,428.4,114.8,1287.3,134.5,2791.9,480.6,431.3,1288.1,2799.6,155.4,70
0.089374,427.4,108.3,1290.7,145.5,2785.3,498.9,430.7,1297.7,2802.9,155.2,70
0.091374,426.7,102.1,1296.2,152.9,2797.0,493.4,429.9,1307,2807.2,154.9,70
0.093374,426.1,96.3,1301.6,158.4,2819.9,470.8,428.8,1315.4,2812.4,154.6,70
0.095374,425.8,89.7,1302.4,160.7,2841.5,444.1,427.5,1322.3,2818.2,154.4,70.1
0.097374,425.0,82.3,1296.7,159.3,2854.8,430.1,426,1327,2824.4,154.1,70.1
0.099374,423.0,75.3,1286.8,156.4,2856.8,441.9,424.3,1328.9,2830.9,153.8,70.2
0.101374,420.5,69.3,1276.9,156.0,2843.9,477.7,422.4,1327.5,2837.2,153.5,70.2
0.103374,418.8,64.4,1268.8,161.4,2819.2,496.1,420.4,1322.6,2843.3,153.2,70.2
0.105374,417.7,60.8,1262.7,172.3,2800.5,456.8,418.2,1314,2848.8,152.9,70.2
0.107374,416.7,58.3,1257.7,183.7,2797.3,391.3,415.8,1301.5,2853.6,152.6,70.1
0.109374,416.1,56.3,1252.0,190.6,2807.9,343.6,413.3,1285.3,2857.4,152.2,70.1
0.111374,414.9,54.6,1244.9,197.1,2830.4,325.0,410.7,1265.8,2860.3,151.9,70
0.113374,412.7,53.4,1238.5,209.1,2858.3,323.8,408,1243.4,2862,151.5,69.9
0.115374,410.3,52.9,1234.7,226.8,2883.1,330.2,405.1,1218.8,2862.6,151.1,69.8
0.117374,408.0,53.6,1234.4,246.3,2901.1,344.6,402,1192.9,2862,150.7,69.6
0.119374,404.9,55.5,1235.2,268.6,2914.7,369.3,398.8,1166.4,2860.4,150.2,69.4
0.121374,400.3,57.1,1230.7,297.5,2920.3,411.8,395.4,1140.4,2857.9,149.8,69
0.123374,394.9,58.5,1214.7,339.8,2912.3,492.9,391.9,1115.8,2854.5,149.3,68.7
0.125374,388.7,60.9,1184.9,399.3,2885.5,628.4,388.2,1093.6,2850.5,148.9,68.2
0.127374,381.9,64.1,1143.5,462.2,2835.1,772.2,384.4,1074.8,2846.1,148.4,67.7
0.129374,375.1,66.8,1098.1,501.5,2789.3,818.6,380.3,1060,2841.4,147.9,67
0.131374,368.2,69.6,1055.6,511.4,2771.8,792.0,376.2,1049.9,2836.6,147.4,66.4
0.133374,361.4,74.7,1028.9,520.5,2775.4,759.9,371.8,1045,2831.9,146.9,65.7
0.135374,356.3,81.2,1027.2,553.3,2798.3,754.3,367.4,1045.6,2827.5,146.4,64.9
0.137374,353.6,86.9,1045.4,598.0,2822.1,757.9,362.9,1051.7,2823.5,145.8,64.2
0.139374,351.9,91.1,1064.0,634.6,2826.1,735.3,358.4,1063,2820,145.3,63.5
0.141374,350.8,92.0,1068.3,664.8,2816.6,714.1,353.8,1079.3,2817.1,144.8,62.9
0.143374,351.3,88.2,1060.6,695.4,2813.5,762.0,349.4,1099.9,2814.7,144.3,62.3
0.145374,353.1,82.4,1049.3,724.7,2821.3,891.7,345,1124,2813,143.9,61.8
0.147374,353.1,78.7,1032.0,743.2,2817.1,978.1,340.8,1150.7,2811.8,143.4,61.4
0.149374,349.4,79.1,1007.6,753.7,2797.4,873.3,336.8,1178.8,2811.2,142.9,61.1
0.151374,344.1,82.8,998.7,800.0,2808.0,728.7,333.1,1207.2,2810.9,142.5,60.7
0.153374,338.9,87.7,1035.6,920.2,2861.0,638.7,329.8,1234.8,2811,142.1,60.3
0.155374,333.6,92.5,1140.9,1076.6,2914.1,561.8,326.9,1260.4,2811.4,141.7,59.8
0.157374,327.2,100.0,1316.4,1182.4,2927.7,511.1,324.4,1283,2811.8,141.3,59.2
0.159374,319.7,112.2,1478.9,1183.2,2908.3,526.5,322.5,1301.7,2812.3,141,58.5
0.161374,312.1,128.4,1559.9,1258.2,2856.4,622.0,321,1315.6,2812.6,140.6,57.7
0.163374,307.9,150.2,1544.5,1570.5,2727.6,756.8,320.2,1324.1,2812.9,140.3,56.9
0.165374,311.5,187.7,1360.3,2088.7,2557.2,678.9,319.9,1327,2813,140.1,55.9
