time,f1,b1,f2,b2,f3,b3,f1p,f2p,f3p,f0,intensity
0.025454,256.0,416.4,1530.9,538.9,2826.7,799.1,289.1,1207.8,2650.2,0,58.6
0.027454,272.2,187.1,1434.2,531.3,2669.7,779.2,289.4,1209.3,2641.8,0,60.4
0.029454,277.7,108.1,1362.3,556.4,2652.6,694.4,289.9,1211.7,2628.2,0,61.7
0.031454,285.8,86.9,1297.2,645.8,2657.0,759.7,290.6,1214.9,2609.3,0,62.7
0.033454,296.0,84.0,1207.7,763.2,2584.3,867.4,291.6,1218.5,2585.8,0,63.4
0.035454,306.4,84.9,1096.7,818.6,2445.7,773.8,293,1222.3,2558.1,0,63.8
0.037454,314.9,83.0,1013.5,801.3,2368.3,594.7,294.7,1226.2,2526.9,79.1,63.9
0.039454,319.6,76.6,970.3,784.6,2342.5,476.9,296.7,1230,2493,79,64
0.041454,320.4,69.2,958.1,832.5,2354.9,456.2,299.1,1233.6,2457.7,79,64
0.043454,319.3,61.8,962.6,984.3,2394.9,522.7,301.8,1237.2,2422.1,78.9,64
0.045454,317.2,54.3,979.2,1224.2,2430.6,622.0,304.7,1240.8,2387.6,78.8,64
0.047454,314.2,47.8,1036.6,1451.3,2425.0,684.4,307.8,1244.9,2355.8,78.7,63.9
0.049454,310.7,44.5,1167.8,1474.1,2388.5,708.2,310.9,1249.8,2328.2,78.6,63.9
0.051454,308.0,44.5,1339.8,1353.4,2346.7,730.7,313.8,1256.1,2306.3,78.5,63.8
0.053454,307.0,46.8,1485.4,1151.9,2331.5,741.4,316.5,1264.2,2291.6,78.4,63.7
0.055454,308.1,50.1,1558.8,956.9,2344.7,718.6,318.8,1274.8,2285.4,78.3,63.6
0.057454,310.2,53.0,1587.3,850.9,2362.6,692.6,320.4,1288.2,2288.6,78.2,63.4
0.059454,311.0,53.1,1601.5,846.6,2378.3,715.4,321.4,1304.8,2301.8,78.1,63.3
0.061454,310.6,50.8,1619.7,933.4,2397.9,824.2,321.7,1324.8,2325,78,63.1
0.063454,310.1,48.5,1643.4,1115.2,2411.6,1057.6,321.2,1348.1,2358.1,77.9,63
0.065454,309.7,47.2,1553.0,1347.9,2329.5,1137.8,319.9,1374.5,2400.1,77.8,62.9
0.067454,308.6,46.1,1289.2,1156.4,2321.8,817.8,317.9,1403.3,2449.8,77.7,62.8
0.069454,307.3,45.8,1186.8,864.2,2392.1,600.8,315.3,1433.8,2505.2,77.6,62.7
0.071454,307.3,48.0,1161.8,720.1,2466.5,495.2,312.4,1464.8,2564.3,77.5,62.5
0.073454,309.0,51.0,1167.3,683.2,2520.5,477.9,309.3,1495.2,2624.5,77.3,62.4
0.075454,312.0,54.4,1199.4,737.5,2565.8,559.9,306.3,1523.6,2683.3,77.2,62.3
0.077454,315.5,59.8,1275.9,904.8,2654.5,821.3,303.8,1548.6,2738,77.1,62.3
0.079454,318.8,69.4,1442.7,1121.3,2937.8,830.2,301.8,1568.7,2786.1,76.9,62.2
0.081454,322.1,84.9,1620.9,1060.8,2984.8,741.8,300.8,1582.8,2825.5,76.7,62.3
0.083454,325.0,103.3,1651.9,1046.7,2963.8,747.5,300.8,1589.7,2854.4,76.6,62.4
0.085454,325.6,113.3,1662.8,1136.6,2909.3,741.8,302.1,1588.6,2871.5,76.4,62.5
0.087454,322.1,104.3,1718.0,1165.1,2893.5,757.7,304.8,1579.2,2876.3,76.2,62.6
0.089454,316.1,85.1,1795.1,1043.6,2944.9,759.9,308.8,1561.2,2868.9,76,62.7
0.091454,311.2,70.1,1803.0,854.0,2954.0,664.8,314.2,1535,2850.1,75.8,62.6
0.093454,308.0,65.4,1738.8,765.9,2885.3,679.2,320.7,1501.4,2821.3,75.6,62.5
0.095454,305.5,72.7,1610.9,821.0,2758.2,768.6,328.2,1461.3,2784.5,75.3,62.2
0.097454,304.5,95.0,1426.8,876.7,2619.9,691.8,336.4,1416.2,2742.4,75.1,61.8
0.099454,309.4,135.9,1264.0,882.8,2553.2,515.2,345,1367.6,2697.6,74.9,61.4
0.101454,324.6,188.6,1151.0,941.1,2529.0,411.0,353.6,1317.3,2653.1,74.7,61
0.103454,349.3,228.3,1102.1,1074.2,2523.8,399.7,362,1267.1,2611.8,74.4,60.7
0.105454,372.8,231.7,1114.2,1169.4,2531.3,467.3,369.7,1218.6,2576.3,74.2,60.4
0.107454,384.0,211.7,1132.9,1082.7,2544.8,557.3,376.6,1173.6,2549,74,60.1
0.109454,388.7,189.5,1130.9,932.2,2562.3,614.9,382.4,1133.2,2531.6,73.8,59.9
0.111454,392.4,173.6,1106.8,833.1,2588.1,610.9,386.8,1098.5,2525.1,73.6,59.8
0.113454,399.0,167.2,1063.3,793.0,2608.7,543.2,389.9,1070.1,2529.8,73.4,59.8
0.115454,408.2,169.0,1014.2,781.9,2607.9,451.9,391.7,1048.3,2545.3,73.2,59.9
0.117454,415.6,175.3,991.1,801.2,2604.3,396.1,392.2,1032.9,2570.6,0,60
0.119454,421.1,186.2,1003.9,883.8,2627.4,374.0,391.5,1023.5,2603.8,0,60
0.121454,423.3,203.1,1055.5,1007.7,2683.0,346.0,390,1019.1,2642.6,0,60
0.123454,412.7,222.3,1082.6,971.3,2736.9,296.0,387.8,1018.8,2684.3,0,60.1
0.125454,386.0,222.4,1036.0,691.9,2761.8,275.3,385.3,1021.4,2726.1,0,60.1
0.127454,364.1,201.7,1020.0,424.4,2765.2,305.1,382.8,1025.6,2765,0,60.2
0.129454,356.7,187.1,1023.1,279.5,2755.8,377.6,380.5,1030.4,2798.5,0,60.4
0.131454,357.2,181.2,1032.9,211.0,2755.5,448.6,378.6,1034.5,2824.2,0,60.4
0.133454,361.0,179.6,1051.5,176.5,2784.2,500.7,377.4,1037.4,2840.3,0,60.5
0.135454,367.9,186.7,1078.9,158.3,2828.9,541.4,377,1038.4,2845.8,0,60.4
