time,f1,b1,f2,b2,f3,b3,f1p,f2p,f3p,f0,intensity
0.025381,287.6,55.8,1773.0,312.5,2261.5,293.2,360.9,1692.1,2452.4,134.2,76.9
0.027381,296.1,73.5,1774.1,312.0,2313.1,419.6,361.9,1685,2453.8,134.3,76.7
0.029381,310.6,107.4,1772.9,317.7,2411.3,597.5,363.5,1673.4,2456.1,134.5,76.5
0.031381,328.9,150.6,1763.5,360.5,2544.2,773.5,365.8,1657.4,2459.3,134.6,76.2
0.033381,342.7,188.3,1739.9,493.6,2619.1,997.7,368.6,1637.3,2463.4,134.7,75.8
0.035381,346.5,212.0,1644.0,787.8,2453.6,1129.4,371.8,1613.6,2468.3,134.8,75.4
0.037381,349.4,228.4,1429.2,858.0,2357.1,907.0,375.5,1586.6,2473.9,135,75
0.039381,363.6,258.9,1381.8,689.4,2360.5,811.5,379.4,1556.8,2480.2,135.1,74.5
0.041381,389.7,296.9,1390.1,541.6,2375.2,798.9,383.5,1524.8,2487.2,135.2,74.1
0.043381,421.5,323.3,1391.5,428.2,2411.4,845.6,387.6,1491.1,2494.7,135.3,73.7
0.045381,455.6,333.8,1386.1,342.0,2473.8,883.1,391.7,1456.3,2502.7,135.4,73.2
0.047381,481.1,331.4,1375.0,283.0,2535.5,863.0,395.7,1421,2511.1,135.4,72.8
0.049381,489.3,329.8,1356.7,245.8,2568.0,820.6,399.4,1385.7,2519.9,135.5,72.5
0.051381,483.8,331.9,1335.5,223.6,2579.7,825.9,402.7,1351.1,2528.8,135.6,72.2
0.053381,473.7,332.4,1320.0,213.1,2606.5,897.5,405.5,1317.6,2537.9,135.6,72
0.055381,462.8,329.9,1310.4,209.0,2671.0,1040.6,407.8,1285.8,2547.1,135.6,71.8
0.057381,452.1,325.5,1300.3,202.0,2798.6,1287.9,409.4,1256,2556.1,135.6,71.7
0.059381,445.1,321.5,1287.2,186.3,3024.7,1743.0,410.3,1228.6,2565.1,135.6,71.6
0.061381,438.6,318.4,1274.8,170.9,3115.4,433.8,410.5,1203.8,2573.9,135.6,71.6
0.063381,420.6,310.9,1263.1,170.7,3081.0,383.9,409.9,1182,2582.3,135.6,71.7
0.065381,391.5,287.6,1248.2,191.5,3053.1,332.7,408.5,1163.3,2590.4,135.5,71.7
0.067381,370.6,257.8,895.2,2496.5,1229.2,215.8,406.4,1147.6,2598.1,135.5,71.8
0.069381,364.5,244.9,889.5,2983.1,1214.3,209.3,403.5,1135,2605.3,135.4,71.9
0.071381,363.3,239.9,1206.2,187.1,3088.9,453.5,399.8,1125.3,2611.9,135.3,72
0.073381,358.2,229.5,1198.3,176.6,3151.5,1337.7,395.5,1118.4,2617.9,135.2,72
0.075381,352.4,217.8,1191.2,171.7,2865.6,1193.8,390.7,1114.1,2623.3,135,72.1
0.077381,347.2,206.1,1187.3,165.6,2750.2,1180.4,385.4,1111.9,2627.9,134.9,72.1
0.079381,341.8,194.4,1183.7,160.5,2629.4,1111.4,379.6,1111.7,2631.9,134.7,72.1
0.081381,338.8,189.2,1177.8,156.4,2528.0,918.0,373.6,1112.9,2635.1,134.6,72
0.083381,338.8,192.2,1173.1,149.3,2486.9,702.6,367.5,1115.2,2637.7,134.4,72
0.085381,338.3,192.7,1171.0,142.7,2483.2,562.1,361.3,1118.2,2639.4,134.2,71.9
0.087381,335.4,183.4,1167.6,145.2,2490.5,512.0,355.2,1121.3,2640.5,133.9,71.7
0.089381,332.3,170.7,1158.4,159.2,2502.2,546.0,349.3,1124.1,2640.8,133.7,71.6
0.091381,330.8,162.6,1143.8,176.4,2525.3,644.4,343.8,1126.2,2640.4,133.4,71.5
0.093381,330.5,161.0,1124.7,193.6,2566.5,805.3,338.7,1127.3,2639.4,133.1,71.4
0.095381,332.4,167.6,1098.5,213.7,2602.5,976.5,334.1,1127,2637.7,132.8,71.3
0.097381,335.9,179.1,1071.1,229.6,2605.8,971.9,330.2,1124.9,2635.4,132.5,71.2
0.099381,338.8,187.0,1052.9,239.7,2610.3,907.9,327.1,1120.9,2632.5,132.1,71.1
0.101381,342.3,192.2,1044.3,254.9,2626.7,888.8,324.7,1114.8,2629.2,131.7,71
0.103381,348.7,201.5,1038.9,281.2,2662.9,846.8,323.2,1106.4,2625.3,131.3,70.9
0.105381,356.4,215.3,1034.8,306.2,2693.6,707.2,322.6,1095.7,2621.1,130.9,70.8
0.107381,360.0,225.9,1030.6,313.0,2699.4,562.3,322.8,1082.8,2616.4,130.5,70.7
0.109381,356.4,224.0,1019.2,301.3,2695.4,499.3,324,1067.7,2611.5,130,70.5
0.111381,349.5,212.2,1002.7,282.4,2676.7,517.5,326.1,1050.6,2606.3,129.6,70.3
0.113381,343.0,195.8,986.8,263.7,2633.4,591.3,329,1031.8,2600.8,129.1,70.1
0.115381,335.9,175.2,972.1,243.2,2561.5,688.2,332.7,1011.5,2595.2,128.6,69.9
0.117381,330.5,157.2,959.5,223.4,2491.1,737.3,337.2,990.1,2589.5,128.1,69.6
0.119381,330.0,151.0,950.3,210.7,2485.6,758.9,342.3,967.9,2583.8,127.6,69.4
0.121381,333.9,158.1,947.1,205.9,2556.5,801.1,348,945.3,2578,127.2,69.1
0.123381,340.2,173.5,946.0,201.5,2669.3,826.1,354.2,922.8,2572.2,126.7,68.9
0.125381,350.5,190.7,940.2,195.0,2769.4,812.1,360.7,900.7,2566.5,126.2,68.6
0.127381,365.8,203.9,931.3,195.5,2821.8,791.2,367.5,879.6,2560.9,125.8,68.4
0.129381,380.6,211.6,920.9,209.0,2811.1,855.2,374.4,859.8,2555.4,125.4,68.2
0.131381,391.2,223.4,907.1,240.4,2717.4,961.4,381.3,841.7,2550,125,67.9
0.133381,399.1,247.5,887.4,295.6,2608.6,908.8,388.1,825.6,2544.8,124.7,67.6
0.135381,404.8,265.9,864.1,349.4,2535.4,852.1,394.8,811.8,2539.8,124.3,67.3
0.137381,407.8,261.6,851.8,370.3,2474.4,836.7,401.1,800.6,2535.1,124.1,66.9
0.139381,409.6,250.0,852.3,377.1,2413.5,841.4,407,792.2,2530.5,123.8,66.3
0.141381,411.5,248.3,856.1,393.5,2352.4,848.3,412.5,786.7,2526.2,123.7,65.7
0.143381,414.6,260.5,855.8,421.6,2318.1,882.1,417.4,784.2,2522,123.5,64.9
0.145381,421.9,276.0,849.9,448.0,2345.7,972.9,421.8,784.6,2518.1,123.4,64.1
0.147381,430.8,275.4,846.1,458.2,2458.4,995.2,425.4,787.8,2514.5,123.4,63.2
0.149381,437.5,268.8,842.9,483.7,2545.2,785.2,428.4,793.8,2511,123.4,62.4
0.151381,444.9,282.0,830.7,606.7,2536.8,623.2,430.8,802.3,2507.8,123.5,61.7
0.153381,450.9,300.8,799.2,847.1,2505.0,621.1,432.4,813,2504.8,123.6,61.3
0.155381,455.4,306.2,743.6,1149.7,2480.5,725.7,433.3,825.6,2501.9,123.8,61.2
0.157381,455.5,302.3,684.9,1432.7,2479.2,885.9,433.5,839.8,2499.3,123.9,61.3
0.159381,442.1,303.5,718.7,1361.4,2499.7,970.3,433.2,855.2,2496.8,124.2,61.5
0.161381,412.9,302.3,795.9,961.4,2488.6,864.3,432.2,871.3,2494.5,124.4,61.7
0.163381,384.7,281.9,834.5,675.7,2461.1,699.8,430.7,887.7,2492.3,124.7,61.8
0.165381,367.4,260.4,851.4,525.9,2438.3,565.8,428.7,904,2490.3,125,61.8
0.167381,359.8,245.5,861.7,444.7,2416.0,484.5,426.3,919.9,2488.4,125.3,61.7
0.169381,362.8,238.1,868.1,399.2,2396.1,473.5,423.6,934.8,2486.5,125.6,61.6
0.171381,373.6,240.2,872.6,373.4,2387.0,545.1,420.6,948.4,2484.8,126,61.6
0.173381,385.0,246.5,878.1,340.1,2391.3,682.6,417.4,960.3,2483.2,126.3,61.5
0.175381,390.7,247.7,882.2,290.0,2408.9,810.6,414,970.4,2481.6,126.6,61.5
0.177381,388.9,243.4,882.4,244.5,2449.3,830.9,410.6,978.4,2480.1,0,61.4
0.179381,380.7,239.7,879.9,217.4,2485.4,714.5,407.1,984,2478.7,0,61.2
0.181381,368.5,247.6,877.7,216.4,2482.1,560.4,403.8,987.3,2477.3,0,60.7
0.183381,357.0,290.3,877.1,264.2,2454.1,469.3,400.5,988.1,2476,0,60
0.185381,357.2,412.2,863.4,416.9,2419.3,486.3,397.3,986.5,2474.8,0,59.1
0.187381,430.8,857.2,680.7,639.2,2380.0,649.6,394.3,982.6,2473.6,0,58.2
0.189381,628.0,334.7,2320.7,913.6,3286.2,860.6,391.6,976.5,2472.4,0,57.6
0.191381,636.9,274.6,2353.7,902.9,3413.3,722.9,389,968.5,2471.3,0,57.5
0.193381,400.2,1384.9,649.2,307.0,2388.5,643.2,386.7,958.7,2470.2,0,58
0.195381,487.8,686.7,703.9,415.6,2389.2,457.4,384.6,947.6,2469.2,0,58.5
0.197381,433.1,473.6,776.3,385.6,2387.7,349.3,382.8,935.4,2468.3,0,59
0.199381,409.5,418.0,798.4,378.2,2388.8,296.5,381.2,922.6,2467.4,0,59.3
0.201381,398.4,433.9,800.9,453.5,2389.6,287.5,379.8,909.5,2466.6,0,59.4
0.203381,394.8,499.4,780.3,663.5,2386.0,315.4,378.6,896.4,2465.8,0,59.4
0.205381,379.9,535.5,746.7,1055.2,2377.0,361.6,377.7,883.8,2465.2,0,59.5
0.207381,335.4,513.4,783.0,1291.0,2372.2,386.2,376.9,872.1,2464.6,0,59.7
0.209381,317.0,521.6,813.0,1129.0,2382.4,389.3,376.2,861.5,2464.1,0,60.1
0.211381,325.4,547.5,808.9,893.5,2402.8,405.8,375.7,852.4,2463.6,0,60.7
0.213381,335.5,541.8,806.7,696.2,2415.5,414.1,375.4,845,2463.3,0,61.4
0.215381,328.8,485.5,816.3,557.4,2411.9,383.7,375.1,839.6,2463.1,0,62.1
0.217381,314.4,406.5,830.9,488.9,2406.5,336.3,375,836.3,2462.9,0,62.7
0.219381,302.9,329.8,850.6,490.2,2413.4,309.0,374.9,835.2,2462.9,0,63.1
