time,f1,b1,f2,b2,f3,b3,f1p,f2p,f3p,f0,intensity
0.025240,351.2,141.1,1916.9,137.1,2844.7,291.5,436.3,1981.5,2841,167.1,66.8
0.027240,369.7,213.2,1928.4,116.6,2840.7,282.1,436.1,1982,2838.3,167.6,67
0.029240,395.1,281.2,1940.8,103.4,2826.8,272.3,435.8,1983.1,2834.1,168.1,67.1
0.031240,423.5,326.9,1957.9,93.4,2808.1,247.9,435.3,1984.8,2828.5,168.7,67.2
0.033240,447.2,346.8,1980.9,86.2,2793.8,212.6,434.4,1987.4,2821.9,169.3,67.2
0.035240,462.9,343.9,2006.3,81.7,2789.5,182.0,433.1,1991.3,2814.7,170,67.3
0.037240,470.8,330.0,2028.3,80.3,2792.8,163.3,431.2,1996.8,2807.2,170.7,67.3
0.039240,472.8,317.0,2046.2,83.4,2801.0,156.5,428.5,2004.1,2800.1,171.4,67.3
0.041240,473.2,305.0,2063.4,92.3,2812.1,160.9,425,2013.8,2793.6,172.2,67.2
0.043240,473.1,292.8,2081.7,105.9,2823.0,173.9,420.5,2026,2788.3,173,67.2
0.045240,466.8,286.8,2099.1,123.2,2830.3,192.7,414.8,2041.1,2784.5,173.8,67.1
0.047240,450.7,289.4,2113.1,146.8,2830.6,222.0,408.1,2059.2,2782.5,174.7,67
0.049240,428.2,290.4,2122.2,182.2,2818.8,268.4,400.2,2080.4,2782.5,175.5,66.9
0.051240,403.8,287.9,2129.3,228.8,2797.8,304.4,391.1,2104.9,2784.8,176.5,66.8
0.053240,378.8,289.9,2141.6,277.6,2786.7,301.4,380.9,2132.6,2789.2,177.4,66.7
0.055240,353.0,298.1,2159.0,321.1,2788.7,286.3,369.7,2163.2,2795.8,178.4,66.6
0.057240,326.8,310.4,2171.8,352.9,2796.0,278.7,357.6,2196.6,2804.5,179.3,66.5
0.059240,302.9,321.4,2177.8,374.7,2804.1,281.1,344.9,2232.4,2814.8,180.3,66.3
0.061240,286.2,325.2,2188.1,399.2,2807.6,295.3,331.8,2270.2,2826.7,181.3,66.2
0.063240,278.4,323.6,2215.4,439.9,2802.8,322.1,318.4,2309.5,2839.6,182.3,66.2
0.065240,275.8,323.7,2269.7,491.0,2797.2,352.9,305.1,2349.8,2853.2,183.3,66.1
0.067240,273.1,325.8,2352.9,514.2,2808.2,375.1,292.1,2390.5,2867.2,184.3,66.1
0.069240,267.8,319.9,2448.6,487.3,2834.2,392.1,279.7,2431,2881.2,185.3,66.1
0.071240,260.2,296.9,2539.0,426.3,2859.2,429.2,268,2470.8,2894.8,186.2,66.2
0.073240,252.5,261.6,2597.4,343.0,2886.5,478.0,257.4,2509.4,2907.9,187.1,66.3
0.075240,248.0,225.2,2615.9,272.9,2923.3,479.8,248,2546.2,2920.1,188,66.5
0.077240,248.2,194.0,2618.2,220.3,2968.7,430.0,239.9,2580.9,2931.4,188.9,66.8
0.079240,250.4,167.7,2620.2,187.4,3010.9,370.2,233.3,2613.1,2941.9,189.7,67
0.081240,250.2,145.7,2623.8,181.7,3040.2,342.9,228.1,2642.5,2951.6,190.5,67.3
0.083240,246.3,126.8,2626.3,205.8,3056.6,370.6,224.4,2669.1,2960.7,191.2,67.5
0.085240,241.1,110.1,2629.3,254.1,3060.3,455.2,222.1,2692.6,2969.5,191.9,67.8
0.087240,237.3,96.5,2644.0,311.2,3048.2,577.9,221,2713.2,2978.2,192.5,68
0.089240,235.6,86.0,2687.3,350.6,3019.1,702.1,221.2,2731,2987.3,193.1,68.3
0.091240,234.9,78.2,2746.7,335.3,2986.4,758.1,222.2,2746,2997.2,193.6,68.5
0.093240,234.1,70.9,2790.0,286.0,2952.4,740.2,224.1,2758.6,3008.1,194.1,68.8
0.095240,232.5,62.2,2814.5,229.2,2928.6,765.5,226.4,2769,3020.4,194.5,69
0.097240,230.6,53.9,2826.0,187.1,2914.1,851.5,229,2777.4,3034.5,194.9,69.2
0.099240,229.0,48.4,2832.1,166.8,2897.4,986.6,231.7,2784.2,3050.3,195.2,69.3
0.101240,228.3,45.8,2832.4,165.0,2899.2,1141.8,234.1,2789.6,3068.1,195.4,69.5
0.103240,228.4,45.2,2820.5,174.7,2979.8,1223.9,236.3,2793.8,3087.7,195.6,69.6
0.105240,228.9,45.7,2797.8,171.1,3134.5,1153.4,237.8,2797.2,3108.9,195.7,69.6
0.107240,228.8,46.7,2785.0,146.4,3270.8,1017.7,238.7,2799.8,3131.3,195.7,69.7
0.109240,228.2,49.4,2786.6,122.7,3333.4,871.0,238.9,2801.7,3154.5,195.8,69.8
0.111240,227.4,54.3,2793.6,106.6,3332.9,770.6,238.2,2802.9,3177.9,195.7,69.8
0.113240,226.6,58.4,2800.1,97.9,3308.8,723.7,236.8,2803.6,3200.8,195.6,69.8
0.115240,225.0,58.0,2803.3,97.8,3274.0,708.9,234.6,2803.4,3222.3,195.5,69.8
0.117240,222.6,53.1,2801.3,107.5,3235.1,694.7,231.7,2802.4,3241.6,195.3,69.7
0.119240,220.1,46.2,2792.9,125.1,3208.0,675.8,228.3,2800.4,3257.8,195,69.7
0.121240,218.1,40.3,2781.0,144.7,3201.2,691.4,224.6,2797.2,3270.3,194.8,69.5
0.123240,217.0,37.1,2771.9,163.8,3206.1,780.8,220.5,2792.5,3278.1,194.4,69.4
0.125240,216.2,36.5,2766.9,185.4,3208.8,967.1,216.4,2786.3,3280.6,194.1,69.2
0.127240,215.4,37.4,2761.9,212.7,3195.5,1245.0,212.4,2778.4,3277.3,193.7,69
0.129240,214.5,38.8,2747.7,246.9,3186.4,1476.2,208.7,2768.6,3268,193.3,68.8
0.131240,213.4,41.3,2712.8,276.3,3249.8,1335.5,205.3,2757,3252.3,192.8,68.7
0.133240,212.5,45.1,2671.5,263.3,3304.0,990.3,202.5,2743.5,3230.5,192.4,68.5
0.135240,211.4,48.5,2656.5,225.3,3314.6,803.1,200.3,2728.2,3202.7,191.9,68.4
0.137240,210.0,49.5,2662.7,203.8,3304.1,789.2,198.8,2711.2,3169.5,191.4,68.2
0.139240,207.9,48.5,2678.8,210.9,3278.0,965.4,198,2693,3131.7,190.8,68.1
0.141240,205.9,47.4,2704.9,241.6,3171.6,1460.7,197.8,2673.6,3090.1,190.3,67.9
0.143240,204.7,49.3,2734.9,281.8,2811.9,1760.6,198.3,2653.6,3045.9,189.8,67.6
0.145240,204.5,56.9,2741.1,1363.8,2750.8,349.2,199.3,2633.4,3000.2,189.2,67.3
0.147240,205.0,69.9,2739.4,421.9,2808.0,980.7,200.7,2613.5,2954.4,188.7,67
0.149240,205.6,82.6,2730.7,359.3,2864.3,967.4,202.4,2594.3,2909.9,188.1,66.7
0.151240,206.0,89.1,2741.9,252.4,2911.4,1191.2,204.3,2576.4,2867.9,187.6,66.3
0.153240,205.7,87.1,2745.1,179.0,3005.4,1522.2,206.1,2560.3,2829.9,187,65.9
0.155240,204.4,77.8,2737.4,144.8,3182.7,2175.1,207.9,2546.4,2796.9,186.5,65.5
0.157240,202.5,66.1,2408.6,2594.9,2721.1,143.1,209.4,2535.2,2770.1,186,65.1
0.159240,201.0,58.2,2288.6,1930.1,2698.0,172.6,210.6,2526.9,2750.3,185.5,64.6
0.161240,200.5,56.1,2314.6,1611.5,2666.7,242.1,211.3,2521.8,2738.2,185.1,64.2
0.163240,200.9,59.2,2360.1,1433.9,2623.2,356.2,211.6,2520.1,2734.1,184.6,63.8
