time,f1,b1,f2,b2,f3,b3,f1p,f2p,f3p,f0,intensity
0.025710,529.4,107.5,1121.2,292.1,3028.0,97.4,524.7,1128.3,3047.9,191,70.4
0.027710,530.6,107.5,1125.2,242.7,3029.4,86.5,526,1130,3047.8,191.3,70.4
0.029710,531.7,109.3,1130.7,204.4,3032.3,84.3,528.1,1132.9,3047.6,191.6,70.4
0.031710,533.0,113.1,1138.3,175.0,3037.2,90.2,531,1137,3047.4,191.9,70.4
0.033710,535.1,117.9,1147.3,151.5,3043.3,95.2,534.6,1142.2,3047.2,192.3,70.4
0.035710,538.1,123.3,1156.6,128.2,3048.5,92.9,538.9,1148.5,3047,192.6,70.5
0.037710,541.3,128.7,1164.5,108.1,3051.0,88.1,543.6,1155.9,3046.7,193,70.6
0.039710,544.9,134.8,1171.5,94.6,3051.8,88.8,548.9,1164.4,3046.5,193.3,70.7
0.041710,549.7,141.9,1179.1,86.4,3053.3,101.7,554.4,1173.9,3046.3,193.7,70.7
0.043710,555.0,147.9,1187.1,82.6,3057.8,129.4,560.1,1184.5,3046.1,194.1,70.8
0.045710,561.2,153.8,1195.7,81.3,3064.8,168.6,565.8,1196,3046,194.4,70.8
0.047710,567.2,160.1,1203.4,82.6,3068.9,196.7,571.5,1208.3,3046,194.8,70.8
0.049710,573.3,168.1,1210.9,87.5,3066.6,201.3,576.9,1221.5,3046.2,195.2,70.7
0.051710,579.5,178.8,1219.2,97.2,3060.4,189.2,582,1235.3,3046.4,195.6,70.6
0.053710,586.5,194.2,1231.3,113.8,3053.1,174.2,586.6,1249.7,3046.8,195.9,70.5
0.055710,593.2,210.8,1247.4,135.2,3047.5,165.5,590.6,1264.5,3047.3,196.3,70.4
0.057710,598.9,224.8,1269.6,157.8,3045.8,163.1,594,1279.7,3047.9,196.7,70.3
0.059710,601.5,231.1,1294.5,170.8,3049.1,162.2,596.5,1294.9,3048.8,197,70.3
0.061710,601.2,230.7,1320.6,170.2,3053.9,156.7,598.1,1310.1,3049.7,197.4,70.3
0.063710,599.3,226.6,1342.1,159.7,3055.7,146.7,598.9,1325.1,3050.9,197.7,70.3
0.065710,597.3,221.4,1359.9,144.3,3053.7,133.7,598.6,1339.7,3052.2,198,70.3
0.067710,596.1,218.5,1372.8,128.5,3049.2,120.2,597.3,1353.7,3053.7,198.3,70.4
0.069710,596.0,220.9,1383.1,113.1,3043.4,105.6,594.9,1366.9,3055.3,198.5,70.4
0.071710,596.0,228.6,1390.5,100.3,3039.3,93.2,591.5,1379.1,3057.2,198.8,70.5
0.073710,594.4,239.3,1396.3,89.7,3039.6,84.3,587.1,1390.2,3059.2,199,70.5
0.075710,589.6,250.9,1401.0,82.5,3045.2,79.1,581.6,1400,3061.4,199.2,70.5
0.077710,582.6,263.7,1405.2,78.9,3052.8,75.5,575.3,1408.3,3063.9,199.3,70.5
0.079710,573.0,277.8,1409.4,78.0,3060.1,72.0,568.1,1415,3066.6,199.5,70.5
0.081710,561.4,289.5,1412.5,78.6,3065.6,69.4,560,1420.1,3069.6,199.5,70.5
0.083710,546.6,298.1,1414.1,79.6,3069.8,68.3,551.3,1423.3,3072.9,199.6,70.5
0.085710,531.5,302.5,1414.2,81.3,3073.2,69.8,542,1424.8,3076.4,199.6,70.5
0.087710,517.3,304.8,1413.7,85.0,3077.7,74.3,532.1,1424.3,3080.3,199.6,70.5
0.089710,506.5,307.0,1413.3,91.3,3084.3,82.1,521.8,1422,3084.6,199.5,70.5
0.091710,498.5,313.0,1412.4,101.2,3094.1,94.9,511.3,1417.9,3089.3,199.4,70.5
0.093710,493.3,326.3,1409.4,112.8,3105.9,111.0,500.6,1412,3094.3,199.2,70.4
0.095710,488.9,349.1,1402.7,125.2,3117.9,124.8,489.8,1404.4,3099.8,199,70.4
0.097710,483.7,373.8,1393.2,135.5,3123.5,126.7,479.1,1395.2,3105.7,198.7,70.3
0.099710,475.8,393.7,1381.1,144.4,3120.6,116.5,468.6,1384.6,3112,198.3,70.2
0.101710,465.6,400.9,1367.8,151.7,3115.9,102.4,458.3,1372.7,3118.7,197.9,70.1
0.103710,452.7,392.9,1351.8,157.6,3117.0,90.9,448.3,1359.6,3125.8,197.5,70
0.105710,440.3,377.0,1336.3,162.6,3125.8,85.0,438.8,1345.5,3133.1,197,69.8
0.107710,430.4,368.3,1323.4,169.4,3140.7,80.9,429.8,1330.7,3140.8,196.4,69.6
0.109710,424.5,377.7,1315.3,175.3,3157.0,75.8,421.4,1315.2,3148.5,195.7,69.4
0.111710,421.2,398.3,1308.7,173.5,3171.1,70.2,413.6,1299.4,3156.3,195,69.2
0.113710,417.7,413.4,1298.0,163.0,3181.8,64.4,406.5,1283.2,3164,194.3,69
0.115710,411.8,403.4,1282.7,150.6,3186.3,60.0,400,1267,3171.6,193.5,68.8
0.117710,402.6,371.0,1264.0,141.4,3185.7,58.2,394.4,1250.7,3178.7,192.6,68.5
0.119710,393.5,341.4,1246.8,139.3,3183.2,59.5,389.4,1234.7,3185.3,191.6,68.3
0.121710,385.9,327.2,1230.5,145.3,3181.9,63.4,385.3,1218.9,3191.2,190.6,68
0.123710,380.7,329.9,1215.2,157.3,3183.2,67.8,381.8,1203.5,3196.1,189.6,67.7
0.125710,375.8,340.7,1199.1,168.6,3185.9,70.7,379.1,1188.4,3199.9,188.5,67.4
0.127710,370.8,346.4,1185.3,169.7,3188.0,72.8,377.1,1173.9,3202.4,187.3,67
0.129710,365.8,338.0,1172.0,161.8,3190.4,77.9,375.7,1159.8,3203.4,186.1,66.7
0.131710,361.7,315.6,1157.1,152.9,3194.1,91.0,375,1146.1,3202.7,184.9,66.3
0.133710,357.8,284.4,1136.9,146.2,3199.5,122.8,374.9,1132.9,3200.1,183.7,65.9
0.135710,355.0,253.6,1114.5,141.5,3204.4,186.6,375.3,1120.1,3195.4,182.4,65.4
0.137710,355.8,223.2,1092.4,137.0,3202.5,298.8,376.3,1107.7,3188.5,181.1,65
0.139710,362.4,201.1,1075.3,137.2,3175.3,378.6,377.7,1095.6,3179.4,179.8,64.5
0.141710,375.3,191.5,1060.7,148.3,3135.7,340.2,379.5,1083.6,3167.9,178.4,64.1
0.143710,390.4,189.7,1046.8,170.3,3117.9,295.6,381.7,1071.9,3154.1,177.1,63.7
0.145710,403.3,187.2,1035.0,198.9,3112.3,305.1,384.1,1060.2,3137.9,175.7,63.4
0.147710,413.4,179.3,1025.8,236.4,3111.3,373.6,386.8,1048.5,3119.3,174.4,63.2
0.149710,419.2,169.4,1017.6,284.3,3113.1,488.8,389.7,1036.9,3098.5,173.1,63
0.151710,421.0,164.2,1003.9,356.8,3111.4,597.9,392.8,1025.2,3075.6,171.8,62.9
0.153710,419.7,169.1,984.5,457.0,3093.4,581.3,396,1013.4,3050.8,170.5,62.8
0.155710,416.2,177.0,969.9,578.1,3057.9,487.0,399.2,1001.5,3024.3,169.3,62.6
0.157710,408.5,174.6,973.6,639.5,3020.2,427.8,402.4,989.6,2996.4,168.1,62.5
0.159710,396.0,162.4,986.0,610.5,2981.0,417.8,405.7,977.7,2967.4,166.9,62.3
0.161710,385.2,151.0,995.3,561.7,2946.9,443.8,408.9,965.8,2937.6,165.8,62.1
0.163710,379.0,146.4,1005.6,545.0,2922.5,503.6,412,954,2907.5,164.7,61.8
0.165710,378.3,148.5,1016.1,558.8,2908.5,621.1,414.9,942.4,2877.3,163.7,61.4
0.167710,383.3,154.2,1018.4,593.2,2863.0,847.6,417.8,931,2847.5,162.7,60.9
0.169710,394.1,163.0,1003.1,659.3,2742.2,1016.9,420.5,920.1,2818.6,161.8,60.4
0.171710,413.6,178.9,965.9,780.5,2674.2,1011.7,422.9,909.7,2790.9,161,59.8
0.173710,439.6,197.6,913.1,939.8,2708.8,1004.9,425.2,900,2764.8,160.2,59.2
0.175710,464.0,213.3,854.3,1070.0,2778.0,1011.8,427.2,891,2740.8,0,58.9
0.177710,475.0,229.2,813.0,1081.1,2790.3,978.2,429,882.9,2719.1,0,58.8
0.179710,469.5,245.1,790.9,1012.8,2721.6,904.2,430.6,875.9,2700.2,0,59
0.181710,444.0,231.3,809.9,885.1,2639.4,821.0,431.8,869.9,2684.3,0,59.5
0.183710,421.8,192.7,844.0,758.2,2608.9,789.5,432.8,865.2,2671.6,0,60
0.185710,413.7,162.1,867.2,687.6,2649.6,794.9,433.6,861.8,2662.4,0,60.4
0.187710,415.2,147.1,876.4,677.3,2704.9,731.5,434,859.7,2656.9,0,60.4
0.189710,423.6,141.9,875.6,733.6,2712.5,601.5,434.1,859,2655,0,60
