time,f1,b1,f2,b2,f3,b3,f1p,f2p,f3p,f0,intensity
0.025556,300.7,164.8,991.3,89.1,2547.7,550.2,319.6,1002.2,2656.7,202.9,70.4
0.027556,307.6,173.2,991.7,90.8,2596.8,548.3,321.4,1004.7,2655.9,203.1,70.8
0.029556,315.7,180.7,992.2,97.6,2652.1,558.6,324.5,1009,2654.6,203.4,71.2
0.031556,325.0,185.7,995.3,112.1,2693.1,570.4,328.7,1015.1,2652.9,203.6,71.7
0.033556,334.8,189.1,1003.9,137.7,2713.9,598.9,333.9,1023,2650.8,203.8,72.2
0.035556,344.6,189.6,1019.4,171.2,2712.8,643.2,340,1032.7,2648.3,204,72.6
0.037556,353.7,185.9,1038.4,199.5,2687.1,681.5,346.8,1044.4,2645.5,204.2,73.1
0.039556,362.1,178.0,1055.1,210.2,2654.4,682.1,354.2,1058.1,2642.5,204.3,73.5
0.041556,370.4,166.1,1070.1,209.0,2636.5,646.2,361.9,1073.8,2639.3,204.4,73.8
0.043556,379.1,150.9,1089.1,208.7,2630.6,607.5,369.9,1091.7,2636,204.5,74.2
0.045556,387.8,133.7,1118.7,213.4,2627.3,588.9,377.8,1111.7,2632.6,204.6,74.4
0.047556,395.4,114.3,1160.1,211.0,2622.5,576.9,385.6,1133.9,2629.3,204.6,74.7
0.049556,401.1,94.6,1204.6,188.4,2619.2,532.3,393,1158.4,2626,204.6,74.9
0.051556,405.2,81.2,1236.9,159.4,2621.8,461.5,399.9,1185.2,2622.9,204.5,75
0.053556,408.8,73.8,1260.4,137.5,2625.8,396.8,406.2,1214.3,2620,204.4,75.1
0.055556,412.0,70.7,1280.2,125.3,2624.7,355.9,411.6,1245.6,2617.3,204.3,75.2
0.057556,414.7,70.3,1299.9,121.3,2616.2,340.1,416.2,1279.1,2614.9,204.1,75.2
0.059556,417.0,71.7,1321.2,125.3,2604.0,345.6,419.8,1314.8,2612.8,203.8,75.1
0.061556,418.6,74.0,1346.2,138.5,2595.2,369.3,422.4,1352.6,2610.9,203.6,75
0.063556,419.3,75.6,1378.7,162.1,2593.8,407.0,424,1392.3,2609.4,203.2,74.8
0.065556,418.8,74.2,1421.6,190.3,2597.4,447.9,424.6,1433.8,2608.2,202.9,74.6
0.067556,417.7,68.9,1470.5,207.5,2600.9,475.4,424.2,1477,2607.3,202.5,74.4
0.069556,417.0,63.2,1513.1,208.3,2601.3,478.7,423,1521.7,2606.8,202.1,74.2
0.071556,416.7,59.9,1548.5,206.5,2600.5,463.5,420.8,1567.7,2606.5,201.6,74.1
0.073556,415.8,58.0,1586.0,209.6,2601.4,440.5,418,1614.8,2606.5,201.1,74
0.075556,413.5,54.9,1630.1,211.6,2602.2,414.7,414.6,1662.8,2606.9,200.6,73.9
0.077556,409.8,49.8,1678.0,206.1,2601.0,388.3,410.7,1711.4,2607.5,200.1,73.8
0.079556,405.5,44.3,1727.7,194.9,2601.8,363.2,406.4,1760.4,2608.5,199.5,73.7
0.081556,401.2,39.6,1782.6,182.2,2609.9,338.5,401.9,1809.5,2609.8,198.9,73.6
0.083556,397.0,35.6,1845.4,167.4,2623.2,308.8,397.3,1858.6,2611.4,198.4,73.5
0.085556,392.6,31.6,1910.0,149.3,2634.2,271.0,392.8,1907.3,2613.4,197.8,73.5
0.087556,388.2,27.2,1969.1,132.8,2638.8,229.3,388.4,1955.5,2615.9,197.2,73.4
0.089556,384.3,23.5,2014.4,126.0,2638.7,193.0,384.3,2003,2618.8,196.6,73.4
0.091556,380.9,20.8,2053.4,130.0,2636.8,163.3,380.5,2049.4,2622.2,196,73.4
0.093556,377.9,18.9,2093.2,143.1,2634.8,142.8,377.1,2094.7,2626.2,195.4,73.4
0.095556,375.5,17.6,2137.9,159.8,2634.0,131.8,374.2,2138.6,2630.8,194.8,73.3
0.097556,373.8,16.5,2186.6,174.5,2636.0,127.4,371.8,2180.9,2636.1,194.3,73.3
0.099556,372.9,15.8,2236.0,183.1,2642.1,125.6,369.9,2221.5,2642.1,193.7,73.2
0.101556,372.3,15.7,2281.6,183.2,2652.1,121.9,368.4,2260.3,2648.9,193.1,73
0.103556,371.9,15.7,2319.4,183.2,2661.4,118.7,367.5,2297.2,2656.4,192.6,72.8
0.105556,371.3,15.9,2353.3,196.2,2666.7,127.5,366.9,2331.9,2664.7,192,72.6
0.107556,370.8,17.0,2389.6,219.3,2668.1,156.6,366.7,2364.5,2673.8,191.5,72.3
0.109556,370.4,19.1,2426.8,234.6,2667.9,207.4,366.8,2394.9,2683.7,191,71.9
0.111556,369.8,22.0,2454.9,229.7,2672.6,270.0,367.1,2422.9,2694.3,190.4,71.6
0.113556,368.9,25.2,2466.4,219.2,2687.0,318.9,367.6,2448.5,2705.5,189.9,71.3
0.115556,367.9,28.4,2468.7,222.7,2703.1,340.0,368.2,2471.7,2717.3,189.4,70.9
0.117556,366.9,30.9,2471.9,243.8,2713.5,342.6,368.7,2492.4,2729.6,188.9,70.6
0.119556,366.3,32.2,2482.9,276.2,2720.1,343.0,369.2,2510.6,2742.2,188.4,70.4
0.121556,365.9,32.1,2507.9,293.5,2728.6,366.7,369.6,2526.4,2754.9,188,70.2
0.123556,365.6,30.9,2537.9,252.8,2752.0,438.0,369.8,2539.6,2767.7,187.5,69.9
0.125556,365.2,29.0,2550.2,188.6,2796.3,510.7,369.7,2550.3,2780.3,187,69.8
0.127556,364.8,27.5,2553.6,156.0,2824.6,547.4,369.4,2558.5,2792.5,186.5,69.6
0.129556,364.7,27.2,2556.0,151.4,2829.9,563.2,368.8,2564.2,2804.1,186,69.4
0.131556,364.8,27.6,2557.1,167.1,2820.3,556.9,367.9,2567.5,2815,185.6,69.3
0.133556,364.9,27.8,2553.6,190.3,2809.2,529.6,366.7,2568.4,2824.9,185.1,69.2
0.135556,364.4,27.5,2544.4,198.7,2812.5,499.4,365.3,2567,2833.6,184.6,69.1
0.137556,363.5,27.1,2535.5,181.3,2836.5,478.7,363.6,2563.3,2841.1,184.2,69
0.139556,362.2,26.7,2530.6,152.8,2874.4,447.2,361.8,2557.5,2847,183.7,69
0.141556,360.6,26.4,2527.5,129.1,2906.0,391.8,359.8,2549.6,2851.4,183.3,69
0.143556,358.8,26.6,2524.6,116.0,2914.9,329.7,357.6,2539.8,2854.1,182.8,69
0.145556,356.7,28.0,2520.9,113.9,2901.2,277.8,355.4,2528.3,2855.1,182.3,69.1
0.147556,354.5,30.4,2514.5,121.7,2874.3,239.0,353.2,2515.1,2854.3,181.9,69.2
0.149556,352.3,33.0,2503.0,137.5,2846.1,212.8,351.1,2500.6,2851.7,181.4,69.3
0.151556,350.3,35.0,2488.3,156.7,2823.9,198.7,349,2484.8,2847.5,181,69.5
0.153556,348.8,36.3,2476.4,172.8,2808.5,194.6,347,2468,2841.7,180.6,69.6
0.155556,347.7,36.9,2471.0,179.6,2798.5,196.7,345.2,2450.4,2834.4,180.1,69.8
0.157556,346.6,37.0,2467.9,172.2,2794.4,197.2,343.5,2432.2,2825.9,179.7,69.9
0.159556,345.3,36.7,2459.9,154.7,2793.9,187.1,342.1,2413.8,2816.3,179.3,70.1
0.161556,343.5,36.6,2443.7,139.3,2789.0,167.1,340.8,2395.4,2805.9,178.9,70.2
0.163556,341.3,38.1,2416.7,131.6,2774.9,143.9,339.8,2377.2,2794.8,178.5,70.2
0.165556,339.4,41.8,2381.8,127.4,2758.7,126.3,338.9,2359.5,2783.5,178.1,70.2
0.167556,338.4,48.0,2346.6,119.2,2748.8,120.6,338.3,2342.6,2772.1,177.8,70.1
0.169556,338.0,54.8,2322.8,109.8,2748.0,132.7,337.8,2326.7,2761,177.4,70.1
0.171556,337.5,58.9,2311.7,105.4,2752.3,160.1,337.4,2312,2750.4,177.1,70
0.173556,336.8,59.7,2306.3,105.5,2753.7,185.8,337.1,2298.8,2740.6,176.7,69.9
0.175556,336.1,58.8,2299.1,112.2,2744.3,199.0,337,2287.3,2731.9,176.4,69.8
0.177556,335.4,57.2,2284.9,131.5,2728.0,208.7,336.9,2277.6,2724.4,176.2,69.7
0.179556,334.7,57.2,2261.2,151.9,2718.0,216.6,336.9,2269.9,2718.4,175.9,69.6
0.181556,334.2,60.2,2235.5,149.3,2724.9,223.2,336.9,2264.3,2713.9,175.6,69.5
0.183556,334.7,65.6,2216.8,133.0,2738.9,230.4,336.9,2260.9,2711.2,175.4,69.3
0.185556,336.0,72.0,2202.4,126.8,2743.6,241.3,336.9,2259.8,2710.3,175.2,69.1
