time,f1,b1,f2,b2,f3,b3,f1p,f2p,f3p,f0,intensity
0.025195,465.3,93.7,933.3,446.5,2709.3,569.6,460.5,943.4,2708.5,160.7,64.3
0.027195,469.0,95.5,958.2,378.0,2764.7,435.3,466.6,948.8,2715.6,160.3,64.7
0.029195,474.4,101.5,973.9,328.1,2779.6,359.5,476.5,957.8,2726.8,159.8,65
0.031195,484.9,114.3,987.5,301.9,2771.7,325.5,489.9,970.3,2741.3,159.3,65.2
0.033195,502.1,133.1,1000.2,299.0,2747.6,323.5,506.3,986.1,2758.2,158.7,65.3
0.035195,523.9,151.1,1011.0,313.3,2723.0,343.3,525.1,1005.1,2776.2,158.2,65.4
0.037195,545.6,160.9,1017.2,343.3,2722.7,381.0,545.7,1027,2794.1,157.6,65.5
0.039195,568.7,161.0,1024.5,386.1,2753.3,418.0,567.6,1051.5,2810.6,157.1,65.6
0.041195,592.3,151.4,1046.2,420.2,2794.9,420.3,590,1078.3,2824.5,156.5,65.5
0.043195,613.7,137.1,1089.3,419.3,2828.3,382.9,612.4,1107.1,2835,155.9,65.5
0.045195,631.8,129.0,1137.9,380.0,2845.6,343.2,634.4,1137.5,2841.2,155.4,65.3
0.047195,652.4,130.5,1177.0,335.2,2856.6,327.4,655.5,1169.1,2842.8,154.8,65.1
0.049195,677.0,136.1,1206.6,311.3,2863.1,336.0,675.5,1201.4,2839.7,154.2,64.9
0.051195,700.2,140.1,1233.4,311.4,2860.0,358.2,694.2,1234,2832.1,153.7,64.6
0.053195,719.1,145.8,1263.5,327.2,2847.5,380.0,711.4,1266.5,2820.4,153.2,64.4
0.055195,735.2,156.5,1297.0,345.8,2830.5,386.8,727.2,1298.4,2805.5,152.7,64.3
0.057195,748.6,172.6,1332.9,364.5,2809.2,379.3,741.6,1329.4,2788.2,152.2,64.2
0.059195,754.9,193.0,1366.3,388.8,2784.9,361.2,754.8,1359.2,2769.7,151.7,64.1
0.061195,755.8,213.6,1399.0,412.9,2762.5,332.2,766.8,1387.4,2751,151.3,64.1
0.063195,760.3,221.1,1429.7,401.4,2741.3,308.2,777.7,1414,2733.1,150.9,64
0.065195,771.6,216.9,1452.5,359.4,2716.2,304.5,787.6,1438.7,2717,150.5,63.9
0.067195,786.2,222.6,1470.8,336.2,2689.2,324.0,796.6,1461.6,2703.3,150.1,63.7
0.069195,804.4,241.5,1488.3,340.4,2659.1,370.4,804.5,1482.6,2692.6,149.8,63.5
0.071195,820.5,260.5,1503.0,362.8,2639.7,431.6,811.4,1501.8,2685,149.5,63.3
0.073195,829.3,274.2,1516.1,395.6,2640.1,493.7,817,1519.5,2680.5,149.3,62.9
0.075195,831.6,284.2,1529.0,435.4,2650.4,540.4,821.2,1535.6,2678.8,149,62.6
0.077195,831.9,285.3,1538.4,453.3,2653.7,552.9,823.9,1550.6,2679.5,148.8,62.3
0.079195,832.4,286.2,1546.1,427.3,2663.7,549.6,824.8,1564.6,2681.9,148.6,61.9
0.081195,829.4,298.6,1557.0,380.0,2689.8,575.7,823.7,1577.8,2685.2,148.4,61.6
0.083195,820.4,311.7,1572.9,324.8,2722.0,633.6,820.7,1590.5,2688.7,148.3,61.3
0.085195,810.4,315.8,1591.7,275.1,2749.8,714.9,815.6,1602.7,2691.7,148.1,61.1
0.087195,803.6,322.7,1612.0,233.1,2768.9,835.2,808.6,1614.7,2693.5,148,60.9
0.089195,799.2,348.8,1631.7,202.9,2769.9,1011.3,799.9,1626.4,2693.8,147.9,60.8
0.091195,791.9,399.5,1648.3,191.1,2740.5,1227.9,789.7,1637.9,2692.3,147.8,60.7
0.093195,774.3,465.6,1661.0,196.8,2684.7,1436.6,778.5,1649.2,2688.9,147.6,60.6
0.095195,743.4,531.2,1671.9,211.0,2624.7,1587.6,766.7,1660.1,2684,147.5,60.6
0.097195,724.7,561.1,1680.7,218.6,2616.4,1504.3,754.9,1670.5,2677.8,147.5,60.6
0.099195,730.9,551.8,1689.8,215.7,2630.7,1156.6,743.7,1680.3,2671,147.4,60.6
0.101195,744.2,518.9,1701.9,204.4,2620.6,797.0,733.6,1689.2,2664.2,147.3,60.6
0.103195,754.0,486.0,1713.5,188.7,2612.3,569.8,725.1,1697.1,2658.1,147.2,60.6
0.105195,755.6,468.6,1718.8,179.1,2618.4,450.9,718.7,1704,2653.4,147.1,60.6
0.107195,744.6,463.0,1718.1,180.4,2637.3,373.1,714.7,1709.5,2650.7,147,60.6
0.109195,720.6,462.8,1712.3,195.4,2664.4,317.2,713.4,1713.8,2650.5,146.9,60.6
0.111195,698.4,463.4,1702.5,209.5,2692.8,280.1,714.7,1716.7,2653.1,146.8,60.6
0.113195,694.9,459.5,1695.0,182.8,2715.3,257.3,718.5,1718.3,2658.4,146.7,60.6
0.115195,708.2,450.4,1694.7,136.9,2723.9,243.2,724.6,1718.8,2666.4,146.6,60.5
0.117195,723.2,443.5,1697.6,111.9,2717.2,232.7,732.5,1718.3,2676.6,146.5,60.4
0.119195,732.2,446.8,1700.1,110.8,2705.9,228.7,741.7,1717,2688.4,146.3,60.2
0.121195,739.5,461.4,1700.2,134.0,2696.3,239.4,751.5,1715.1,2701.2,146.2,60
0.123195,755.2,473.4,1698.5,179.4,2690.8,265.6,761.4,1712.9,2714,146.1,59.8
0.125195,784.6,457.1,1706.6,201.7,2694.9,292.2,770.5,1710.7,2725.9,146,59.4
0.127195,809.8,415.3,1724.1,156.6,2713.4,295.8,778.4,1708.7,2736.3,145.9,59
0.129195,814.2,397.2,1730.6,105.0,2733.2,279.9,784.4,1707.1,2744.2,145.8,58.5
0.131195,795.6,418.3,1726.9,80.5,2744.8,272.0,788.2,1706.1,2749.2,145.7,57.9
0.133195,744.3,485.9,1719.3,76.6,2754.4,292.0,789.5,1705.8,2750.9,145.6,57.2
