time,f1,b1,f2,b2,f3,b3,f1p,f2p,f3p,f0,intensity
0.025667,406.1,88.6,983.3,165.3,2899.5,454.9,423.4,1045.1,2998.7,197.9,67.4
0.027667,413.6,99.2,998.5,173.1,2947.8,460.7,425.2,1047.8,2997.5,198,67.7
0.029667,421.1,109.6,1012.8,186.8,2995.7,443.1,428.2,1052.3,2995.6,198,68
0.031667,428.0,117.1,1026.1,202.2,3026.4,418.0,432.2,1058.4,2993.1,198.1,68.2
0.033667,435.1,124.2,1042.0,221.9,3030.1,385.9,437.2,1066.2,2990.5,198.2,68.4
0.035667,443.9,134.6,1067.0,248.8,3011.9,341.0,443,1075.4,2987.8,198.2,68.7
0.037667,455.5,146.7,1103.5,271.9,2996.0,291.1,449.3,1086.1,2985.5,198.2,68.8
0.039667,467.9,155.3,1141.3,274.9,2991.2,250.5,456.1,1098.1,2983.8,198.3,69
0.041667,479.1,157.6,1171.0,261.4,2991.1,226.2,463,1111.1,2983.1,198.3,69.2
0.043667,485.2,153.4,1186.7,246.9,2990.5,228.4,470,1125.1,2983.7,198.3,69.3
0.045667,488.1,145.7,1195.1,233.3,2989.8,253.6,476.7,1139.8,2985.7,198.2,69.4
0.047667,490.7,138.1,1203.7,214.7,2995.4,286.3,483.1,1155.1,2989.4,198.2,69.4
0.049667,493.7,133.3,1213.5,191.1,3012.7,306.8,488.9,1170.6,2994.8,198.1,69.5
0.051667,496.3,131.0,1221.4,167.9,3033.9,307.1,493.9,1186.3,3001.8,198.1,69.5
0.053667,497.6,130.0,1225.2,149.7,3045.2,298.1,498.1,1201.8,3010.5,198,69.6
0.055667,498.1,129.6,1226.2,137.2,3044.8,293.0,501.3,1216.9,3020.6,197.8,69.6
0.057667,498.1,130.1,1226.9,128.8,3039.6,294.0,503.6,1231.5,3031.9,197.7,69.7
0.059667,497.8,131.0,1228.2,124.3,3035.8,299.5,504.8,1245.4,3043.9,197.5,69.7
0.061667,496.8,131.8,1230.1,123.8,3037.4,309.0,504.9,1258.3,3056.4,197.3,69.7
0.063667,495.4,132.1,1232.9,129.3,3046.5,314.9,504,1270.1,3068.8,197.1,69.7
0.065667,493.9,132.6,1237.5,142.5,3060.8,307.7,502.2,1280.6,3080.7,196.9,69.7
0.067667,492.5,132.9,1245.0,164.0,3075.4,288.8,499.4,1289.9,3091.7,196.7,69.6
0.069667,490.9,132.3,1256.0,192.1,3087.3,266.7,495.9,1297.9,3101.4,196.4,69.5
0.071667,488.6,131.4,1270.1,221.8,3096.2,246.6,491.7,1304.4,3109.3,196.1,69.4
0.073667,485.7,131.0,1285.6,243.7,3102.1,227.0,486.9,1309.6,3115.3,195.8,69.3
0.075667,482.4,132.2,1299.6,248.4,3103.5,204.7,481.7,1313.6,3119.1,195.5,69.1
0.077667,478.7,134.7,1308.9,237.5,3099.9,180.4,476.1,1316.4,3120.5,195.2,69
0.079667,473.3,136.7,1313.1,221.7,3094.4,157.9,470.4,1318.2,3119.8,194.9,68.8
0.081667,466.6,136.7,1314.2,208.7,3092.0,144.5,464.5,1319,3116.8,194.5,68.7
0.083667,460.6,135.9,1316.2,198.1,3093.5,140.2,458.6,1319.2,3112,194.2,68.6
0.085667,456.3,136.1,1321.7,189.7,3098.0,143.7,452.8,1318.9,3105.6,193.8,68.5
0.087667,453.2,137.7,1330.4,184.5,3104.3,156.1,447.2,1318.3,3098.1,193.5,68.3
0.089667,450.1,138.3,1339.9,183.5,3111.0,179.3,441.7,1317.5,3090,193.1,68.2
0.091667,445.3,135.5,1348.5,188.9,3116.4,214.6,436.4,1316.7,3081.7,192.7,68
0.093667,438.1,128.6,1354.8,199.7,3120.8,255.0,431.3,1316.2,3074,192.3,67.9
0.095667,430.0,120.6,1358.5,210.1,3126.6,281.9,426.5,1315.8,3067.2,191.9,67.8
0.097667,423.1,115.1,1360.2,218.4,3131.7,289.6,421.8,1315.8,3061.9,191.6,67.7
0.099667,416.7,111.7,1360.2,233.3,3127.1,302.9,417.4,1316.2,3058.4,191.2,67.6
0.101667,410.3,108.9,1355.8,261.3,3100.6,346.5,413.2,1316.8,3057.2,190.8,67.5
0.103667,403.8,104.5,1344.5,298.3,3048.5,409.7,409.2,1317.5,3058.4,190.4,67.4
0.105667,398.1,99.0,1331.2,338.4,2997.9,438.6,405.3,1318.3,3062.1,190,67.3
0.107667,393.7,94.0,1321.3,393.1,2992.0,422.7,401.7,1318.8,3068.2,189.6,67.3
0.109667,390.4,89.5,1308.4,469.0,3019.2,395.1,398.2,1318.9,3076.3,189.2,67.2
0.111667,387.6,84.9,1280.4,532.0,3048.7,374.2,394.9,1318.1,3086.2,188.8,67.1
0.113667,385.1,80.2,1249.9,525.6,3071.3,350.2,391.9,1316.1,3097.2,188.4,67.1
0.115667,384.5,77.6,1246.8,454.7,3088.2,293.4,389.2,1312.6,3108.8,188,67
0.117667,385.9,77.7,1254.8,358.6,3110.0,220.3,386.8,1307.2,3120,187.6,67
0.119667,388.7,78.8,1252.1,267.6,3137.6,163.3,384.8,1299.6,3130.2,187.2,66.9
0.121667,391.0,79.5,1243.1,215.5,3157.9,143.5,383.2,1289.3,3138.3,186.8,66.9
0.123667,390.7,79.4,1236.3,204.2,3164.5,161.5,382.2,1276.1,3143.6,186.4,66.8
0.125667,388.5,77.9,1231.5,223.0,3157.9,214.4,381.7,1259.7,3145.2,186,66.8
0.127667,386.8,76.5,1227.1,263.1,3142.0,294.9,381.8,1240,3142.3,185.5,66.6
0.129667,386.6,77.6,1224.3,321.0,3115.9,382.7,382.6,1216.9,3134.3,185.1,66.5
0.131667,388.1,82.1,1222.3,382.4,3080.7,435.5,384.1,1190.4,3120.8,184.7,66.3
0.133667,390.1,89.2,1213.2,413.7,3053.8,421.2,386.3,1160.5,3101.4,184.2,66.1
0.135667,391.4,97.2,1192.4,405.8,3044.8,377.0,389.2,1127.5,3076,183.8,65.8
0.137667,391.6,106.6,1160.9,386.6,3047.3,354.7,392.8,1091.6,3044.7,183.3,65.4
0.139667,391.0,119.0,1123.8,382.3,3059.9,388.5,397.1,1053.4,3008,182.9,65
0.141667,391.2,138.9,1082.1,405.6,3085.9,487.8,401.9,1013.3,2966.3,182.4,64.6
0.143667,394.9,171.9,1033.1,461.5,3130.1,646.7,407.1,971.8,2920.5,182,64.1
0.145667,404.9,221.2,970.9,544.2,3097.2,1426.7,412.7,929.8,2871.5,181.5,63.7
0.147667,419.6,282.9,888.9,620.4,2791.7,1108.3,418.5,887.8,2820.4,181.1,63.4
0.149667,431.0,351.8,796.4,628.7,2654.4,862.3,424.4,846.7,2768.5,180.6,63.1
0.151667,431.9,431.8,722.3,570.4,2565.3,686.8,430.3,807.2,2717.1,180.2,63
0.153667,427.7,524.0,674.0,509.6,2505.8,601.1,435.9,770.2,2667.7,179.7,62.8
0.155667,431.4,611.3,643.0,479.9,2468.1,611.9,441.1,736.3,2621.5,179.3,62.8
0.157667,454.7,657.7,621.0,496.2,2443.3,735.6,445.9,706.3,2579.8,178.9,62.7
0.159667,503.2,598.3,594.3,611.7,2431.0,999.7,449.9,680.8,2544,178.5,62.7
0.161667,488.4,476.4,631.8,798.2,2440.8,1394.6,453.2,660.3,2514.9,178.1,62.6
0.163667,462.2,413.0,676.4,908.0,2499.3,1747.7,455.6,645.4,2493.5,177.7,62.5
0.165667,433.7,351.7,722.6,995.8,2631.4,1816.0,457.1,636.3,2480.4,177.3,62.5
0.167667,404.0,289.7,787.4,1102.3,2802.5,1551.5,457.6,633.2,2476,177,62.4
