time,f1,b1,f2,b2,f3,b3,f1p,f2p,f3p,f0,intensity
0.025796,367.4,97.6,1850.3,160.7,2709.4,409.1,389.8,1814.7,2656.1,235.7,76.9
0.027796,373.9,88.1,1820.7,149.9,2660.7,319.2,391,1811,2655.5,235.1,78.1
0.029796,384.5,85.1,1805.3,156.0,2652.6,299.5,393,1804.9,2654.5,234.5,79
0.031796,395.3,79.6,1792.9,173.1,2646.7,301.5,395.7,1796.3,2653.1,233.9,79.8
0.033796,404.4,70.5,1778.4,199.1,2633.9,310.1,399,1785.3,2651.5,233.3,80.3
0.035796,411.3,59.5,1757.1,230.4,2615.3,315.8,402.8,1771.8,2649.7,232.7,80.7
0.037796,416.0,50.5,1732.3,257.5,2605.8,313.0,406.9,1756,2647.7,232,81
0.039796,420.0,43.8,1707.0,279.9,2612.1,305.7,411.3,1737.8,2645.7,231.4,81.2
0.041796,423.7,38.6,1682.6,298.6,2628.3,294.9,415.8,1717.3,2643.7,230.7,81.3
0.043796,427.5,34.1,1659.9,316.1,2645.3,281.3,420.2,1694.5,2641.9,230.1,81.3
0.045796,431.0,30.7,1643.8,339.1,2657.6,270.8,424.3,1669.6,2640.4,229.4,81.2
0.047796,434.1,28.1,1633.6,382.6,2666.4,261.4,428.1,1642.6,2639.1,228.7,81
0.049796,436.7,26.3,1627.3,462.9,2671.8,243.4,431.3,1613.6,2638.3,228,80.9
0.051796,438.5,25.4,1622.3,572.4,2671.9,217.1,433.9,1582.8,2637.9,227.4,80.6
0.053796,439.5,25.0,1611.6,688.8,2667.5,192.6,435.7,1550.4,2638,226.7,80.3
0.055796,439.4,25.2,1587.6,780.7,2661.1,175.2,436.6,1516.5,2638.8,226,80
0.057796,438.1,26.3,1554.6,838.1,2655.4,165.4,436.6,1481.4,2640.1,225.3,79.7
0.059796,435.4,28.5,1515.2,887.1,2648.9,159.5,435.7,1445.2,2641.9,224.6,79.4
0.061796,431.3,32.5,1472.9,946.2,2641.8,153.9,433.7,1408.2,2644.4,223.9,79.1
0.063796,426.8,38.2,1436.1,1008.0,2638.0,147.6,430.7,1370.7,2647.4,223.2,78.7
0.065796,421.9,45.6,1390.2,1035.6,2637.9,141.7,426.8,1333,2650.9,222.4,78.4
0.067796,415.5,53.0,1297.5,957.0,2638.0,141.9,422,1295.3,2654.8,221.7,78
0.069796,407.3,57.5,1195.2,794.1,2634.9,150.9,416.4,1257.9,2659.1,220.9,77.6
0.071796,398.3,60.4,1121.6,663.3,2629.8,165.4,410.1,1221.2,2663.6,220.1,77.1
0.073796,389.7,65.9,1064.7,624.2,2625.3,182.1,403.2,1185.4,2668.3,219.3,76.6
0.075796,383.8,76.4,1009.9,685.2,2627.0,191.1,396,1150.8,2673.1,218.5,76.2
0.077796,381.3,92.1,939.4,824.9,2635.6,195.8,388.4,1117.6,2677.9,217.7,75.8
0.079796,380.9,106.6,861.8,951.8,2645.6,206.3,380.8,1086.2,2682.6,216.9,75.5
0.081796,376.5,110.6,833.0,932.4,2655.8,225.3,373.2,1056.7,2687,216,75.3
0.083796,369.4,104.0,860.3,845.4,2668.9,255.1,365.9,1029.3,2691.3,215.1,75.2
0.085796,364.9,96.8,896.4,821.9,2688.3,301.5,358.9,1004.1,2695.2,214.3,75.2
0.087796,364.4,94.9,928.2,918.8,2720.2,365.2,352.5,981.4,2698.7,213.4,75.2
0.089796,367.8,98.6,990.2,1247.0,2768.3,413.1,346.8,961.1,2701.9,212.5,75.2
0.091796,373.8,102.7,1366.0,1449.5,2815.3,456.4,341.8,943.3,2704.7,211.5,75.2
0.093796,377.8,103.1,1511.9,1254.6,2870.8,593.8,337.7,928,2707.1,210.6,75.2
0.095796,376.2,103.7,1613.0,1456.6,2950.6,899.7,334.5,915.2,2709.3,209.7,75.1
0.097796,372.0,105.5,2221.8,2030.0,3189.1,1696.1,332.3,904.7,2711.1,208.8,75
0.099796,164.2,1945.2,369.9,106.8,2427.2,1085.3,331.2,896.5,2712.8,207.8,74.9
0.101796,213.7,1782.8,370.3,105.9,2478.4,856.7,331,890.3,2714.5,206.9,74.9
0.103796,368.6,103.8,398.4,1605.2,2528.4,724.0,331.8,886,2716.1,206,75
0.105796,364.2,99.4,597.1,1294.9,2572.2,623.1,333.5,883.3,2717.9,205.1,75.1
0.107796,361.7,93.0,691.0,1086.0,2609.9,584.3,336,882,2720,204.1,75.2
0.109796,362.0,87.1,736.0,980.2,2640.1,590.6,339.3,881.9,2722.5,203.2,75.3
0.111796,363.3,82.8,765.7,917.3,2655.5,626.7,343.2,882.7,2725.5,202.3,75.4
0.113796,363.8,80.5,801.2,853.9,2687.9,633.4,347.6,884,2729.2,201.4,75.5
0.115796,362.5,79.4,851.5,745.7,2745.4,545.7,352.4,885.8,2733.6,200.5,75.5
0.117796,359.9,79.2,897.9,607.2,2779.2,435.9,357.4,887.6,2738.9,199.6,75.4
0.119796,357.6,80.6,926.5,479.2,2785.4,388.2,362.5,889.3,2745,198.7,75.4
0.121796,357.1,83.4,932.7,387.8,2777.4,423.4,367.6,890.6,2752.1,197.9,75.4
0.123796,359.1,86.5,924.8,325.9,2766.2,537.4,372.6,891.5,2760.2,197,75.4
0.125796,364.1,91.1,911.7,289.9,2767.0,699.6,377.3,891.6,2769.2,196.2,75.4
0.127796,370.7,97.7,901.9,276.0,2804.2,818.8,381.7,891,2779.1,195.3,75.5
0.129796,377.9,106.7,898.1,275.6,2875.2,854.8,385.7,889.6,2789.8,194.5,75.5
0.131796,385.4,118.5,900.2,282.4,2927.2,791.1,389.2,887.2,2801.2,193.6,75.7
0.133796,392.0,130.5,904.1,286.2,2924.7,685.7,392.2,884.1,2813.1,192.8,75.8
0.135796,397.9,142.8,907.5,285.6,2898.4,564.5,394.6,880.1,2825.5,192,75.9
0.137796,404.0,156.9,911.0,287.2,2872.7,452.5,396.6,875.4,2838,191.2,76.1
0.139796,409.4,168.9,913.0,292.2,2857.4,385.4,398.2,870.1,2850.4,190.3,76.3
0.141796,412.3,173.4,909.9,294.6,2850.2,357.9,399.3,864.4,2862.6,189.5,76.5
0.143796,411.8,167.9,900.9,290.1,2850.4,355.8,400,858.4,2874.3,188.7,76.7
0.145796,408.8,156.0,889.1,282.1,2858.6,368.8,400.6,852.4,2885.2,187.9,76.9
0.147796,404.6,142.2,876.2,276.6,2874.9,403.6,400.9,846.5,2895.1,187.1,77.1
0.149796,400.2,129.0,863.4,276.0,2898.4,480.7,401.2,841.1,2903.7,186.3,77.3
0.151796,396.6,117.9,852.6,274.2,2919.8,611.3,401.6,836.2,2910.8,185.5,77.4
0.153796,393.7,107.8,842.4,260.8,2895.8,819.2,402.1,832.1,2916.2,184.7,77.4
0.155796,392.0,100.2,833.1,235.6,2803.9,796.8,402.9,829.1,2919.8,183.9,77.3
0.157796,392.4,97.8,826.0,210.3,2803.8,655.2,404.1,827.2,2921.3,183.1,77.2
0.159796,395.4,103.2,822.1,197.3,2832.8,543.2,405.7,826.6,2920.8,182.3,76.9
0.161796,400.1,115.0,820.0,194.3,2857.1,468.3,407.9,827.5,2918.1,181.5,76.6
0.163796,405.7,127.9,818.0,193.5,2868.6,441.7,410.7,829.9,2913.1,180.7,76.2
0.165796,411.3,136.1,816.5,191.3,2863.3,474.7,414.1,833.9,2906.1,180,75.8
0.167796,418.0,141.5,816.7,190.3,2836.4,554.2,418.2,839.4,2896.9,179.2,75.4
0.169796,426.5,145.7,820.1,192.9,2797.4,646.7,422.9,846.4,2885.8,178.4,75.1
0.171796,436.0,146.4,826.7,196.0,2789.7,716.4,428.2,854.8,2872.9,177.7,74.8
0.173796,445.7,140.0,836.9,194.2,2849.5,740.4,434.1,864.5,2858.4,176.9,74.7
0.175796,454.3,124.5,849.8,183.7,2962.8,593.5,440.5,875.3,2842.6,176.2,74.6
0.177796,460.0,106.0,861.4,168.4,2999.3,404.0,447.3,887.1,2825.8,175.4,74.7
0.179796,464.0,90.7,870.7,155.3,3015.4,310.2,454.3,899.5,2808.3,174.7,74.8
0.181796,467.7,81.2,878.7,151.9,3034.2,278.1,461.6,912.3,2790.4,174,75
0.183796,471.4,76.6,886.0,160.4,3061.9,300.7,468.8,925.4,2772.5,173.4,75
0.185796,474.3,73.5,894.0,175.1,2924.0,1401.3,476,938.2,2754.9,172.7,75.1
0.187796,476.5,70.9,907.0,189.4,2731.7,990.0,482.9,950.7,2738,172.1,75
0.189796,478.2,70.4,928.2,196.0,2631.6,765.3,489.4,962.5,2722.2,171.5,74.8
0.191796,479.5,73.7,955.4,186.1,2583.1,662.7,495.3,973.4,2707.7,170.9,74.5
0.193796,480.8,83.7,980.8,162.4,2557.7,644.1,500.6,983,2694.9,170.3,74.2
0.195796,484.2,106.3,1001.4,144.4,2544.5,681.4,505.1,991.2,2684.1,169.8,73.9
0.197796,492.9,141.9,1020.7,147.4,2547.2,733.2,508.7,997.8,2675.4,169.3,73.7
0.199796,509.8,186.8,1047.3,170.5,2581.7,772.9,511.4,1002.7,2669,168.8,73.5
0.201796,532.8,229.8,1085.2,200.2,2656.8,766.0,513,1005.6,2665.2,168.4,73.3
0.203796,550.9,256.7,1123.8,212.1,2718.4,693.6,513.5,1006.6,2663.9,168,73.2
